t(s),Tsurface(蚓),Flux(W),E(J),f_liq
0.0,4.0,38.400000000000034,0.0,1.0
180.0,3.288163251497306,35.2873975638146,6351.731561486628,1.0
360.0,3.0126519381780423,34.24376761803449,12515.609732732835,1.0
540.0,2.8501992483239578,33.73139957209258,18587.2616557095,1.0
720.0,2.7317679945867184,33.4213259622445,24603.10032891351,1.0
900.0,2.632118384424116,33.192421712225695,30577.736237114135,1.0
1080.0,2.5409066771604074,32.99458829324553,36516.76212989833,1.0
1260.0,2.5396991430593943,33.24398186850294,42500.67886622886,1.0
1440.0,2.5355494612330136,33.47445173260478,48526.08017809772,1.0
1620.0,2.5281401601752624,33.68376419393855,54589.15773300666,1.0
1800.0,2.5176027984128218,33.871982409855825,60686.11456678071,1.0
1980.0,2.504193653148261,34.03985480106116,66813.28843097172,1.0
2160.0,2.4881973875573484,34.188330708459674,72967.18795849445,0.9881973875573484
2340.0,2.4698919644073234,34.318379097561944,79144.49619605561,0.9698919644073234
2520.0,2.449536109029356,34.4309198458013,85342.06176829984,0.9495361090293559
2700.0,2.427365779973047,34.526800725714104,91556.88589892838,0.927365779973047
2880.0,2.4035942309278777,34.60679310494819,97786.10865781904,0.9035942309278777
3060.0,2.378413424659031,34.671595080849734,104026.995772372,0.8784134246590312
3240.0,2.351995871843655,34.72183730335861,110276.92648697655,0.8519958718436551
3420.0,2.3244965178438015,34.75808950656963,116533.38259815908,0.8244965178438015
3600.0,2.2960545315798595,34.78086694489418,122793.93864824003,0.7960545315798595
3780.0,2.2793673938740584,34.86149470877428,129069.0076958194,0.7793673938740584
3960.0,2.2636212276134633,34.939765385281994,135358.16546517017,0.7636212276134633
4140.0,2.2487873292773077,35.015473964461876,141660.95077877332,0.7487873292773077
4320.0,2.234661327688978,35.087406707104925,147976.6839860522,0.7346613276889782
4500.0,2.221195180257174,35.155228727273055,154304.62515696135,0.7211951802571739
4680.0,2.20753603154371,35.2139297320156,160643.13250872417,0.70753603154371
4860.0,2.1938854523543605,35.264551047130205,166990.7516972076,0.6938854523543605
5040.0,2.179498959455912,35.30261366256217,173345.22215646878,0.6794989594559122
5220.0,2.1657864730490464,35.33626835535168,179705.7504604321,0.6657864730490464
5400.0,2.1526579072024146,35.36494895531977,186071.44127238964,0.6526579072024146
5580.0,2.140040747772915,35.38818812431005,192441.31513476543,0.6400407477729151
5760.0,2.1278703109511863,35.405562181557094,198814.3163274457,0.6278703109511863
5940.0,2.1160887909800374,35.4166870126683,205189.319989726,0.6160887909800374
6120.0,2.104645532203069,35.42122114972185,211565.13979667594,0.6046455322030688
6300.0,2.0934970555423327,35.41886733398591,217940.5359167934,0.5934970555423327
6480.0,2.082606697081873,35.409371640283936,224314.2228120445,0.5826066970818728
6660.0,2.071943988876324,35.39252088756128,230684.87657180554,0.571943988876324
6840.0,2.0614839221663543,35.368139156298355,237051.14161993924,0.5614839221663543
7020.0,2.0512061911987556,35.33608400693333,243411.63674118725,0.5512061911987556
7200.0,2.0410944755548615,35.29624276492658,249764.96043887403,0.5410944755548615
7380.0,2.031135790279669,35.24852907140486,256109.6956717269,0.5311357902796692
7560.0,2.0213199150447823,35.19287979025712,262444.4140339732,0.5213199150447823
7740.0,2.0116389030348127,35.12925229728341,268767.6794474842,0.5116389030348127
7920.0,2.0020866645850557,35.05762214009752,275078.05143270176,0.5020866645850557
8100.0,1.9926586179439765,34.97798103847544,281374.0880196273,0.4926586179439765
8280.0,1.9833513986531561,34.89033518667512,287654.3483532288,0.48335139865315613
8460.0,1.9741626191490012,34.79470381741524,293917.39504036354,0.47416261914900115
8640.0,1.9650906708152462,34.691117988839615,300161.79627835465,0.46509067081524624
8820.0,1.9561345615661327,34.57961955917991,306386.12779900705,0.45613456156613275
9000.0,1.9472937829519457,34.460260317918625,312588.9746562324,0.44729378295194566
9180.0,1.9385682016604824,34.333101246458035,318768.93288059486,0.4385682016604824
9360.0,1.9299579710948818,34.19821188528629,324924.6110199464,0.42995797109488176
9540.0,1.9214634594212738,34.05566978825311,331054.63158183196,0.42146345942127383
9720.0,1.913085191095672,33.90556004775313,337157.6323904275,0.4130851910956721
9900.0,1.9048237994031485,33.74797487737052,343232.2678683542,0.4048237994031485
10080.0,1.896679987982342,33.583013240883886,349277.21025171335,0.39667998798234194
10260.0,1.8886544996750245,33.41078051850981,355291.1507450451,0.3886544996750245
10440.0,1.8807480913440129,33.23138820291634,361272.80062157003,0.3807480913440129
10620.0,1.8729615135528075,33.044953618917965,367220.89227297524,0.3729615135528075
10800.0,1.865295494205673,32.851599661901055,373134.18021211744,0.365295494205673
10980.0,1.8577507254148677,32.65145455097146,379011.4420312923,0.35775072541486774
11160.0,1.8503278529989615,32.444651593590066,384851.4793181385,0.3503278529989615
11340.0,1.8430274681280043,32.2313289590972,390653.118530776,0.34302746812800433
11520.0,1.8358501007223458,32.01162945904904,396415.21183340484,0.3358501007223458
11700.0,1.828796214285917,31.7857003327134,402136.6378932932,0.3287962142859171
11880.0,1.8218662019149106,31.553693036423216,407816.3026398494,0.32186620191491055
12060.0,1.8150603832715806,31.31576303576766,413453.1399862876,0.3150603832715806
12240.0,1.8083790023524842,31.072069599833682,419046.11251425766,0.30837900235248417
12420.0,1.8018222259125765,30.822775596899373,424594.21212169953,0.30182222591257646
12600.0,1.795390142432574,30.56804729113209,430096.4606341033,0.295390142432574
12780.0,1.7890827615380909,30.30805413997183,435551.9103792982,0.28908276153809087
12960.0,1.7829000137961137,30.04296859197678,440959.64472585404,0.28290001379611374
13140.0,1.7768417508281855,29.77296588499369,446318.77858515293,0.2768417508281855
13320.0,1.770907745690882,29.498223844578202,451628.45887717704,0.27090774569088194
13500.0,1.765097693483183,29.218922682646113,456887.86496005335,0.265097693483183
13680.0,1.7594112121476924,28.935244796375613,462096.20902340097,0.25941121214769236
13860.0,1.7538478434385578,28.647374567417884,467252.7364455362,0.2538478434385578
14040.0,1.7484070540337455,28.35549816149899,472356.726114606,0.24840705403374552
14220.0,1.7430882367731841,28.059803328515365,477407.4907137388,0.24308823677318414
14400.0,1.7378907120074303,27.76047920324635,482404.3769703231,0.23789071200743028
14580.0,1.7328137290440189,27.457716106815443,487346.7658695499,0.23281372904401887
14760.0,1.7278564676807113,27.151705349044732,492234.0728323779,0.22785646768071133
14940.0,1.7230180398164991,26.842639031853313,497065.7478581115,0.22301803981649915
15120.0,1.7182974911325386,26.530709853855765,501841.27563180553,0.2182974911325386
15300.0,1.7136938028362763,26.216110916320744,506560.17559674324,0.21369380283627626
15480.0,1.7092058934628762,25.899035530650956,511222.0019922604,0.2092058934628762
15660.0,1.704832620728754,25.5796770275499,515826.3438572194,0.20483262072875408
15840.0,1.7005727834325914,25.258228568036124,520372.8249994659,0.20057278343259144
16020.0,1.6964251233996455,24.934882956470506,524861.1039316306,0.19642512339964546
16200.0,1.6923883274655296,24.60983245575865,529290.8737736671,0.19238832746552958
16380.0,1.688461029495933,24.28326860488711,533661.8621225469,0.18846102949593302
16560.0,1.6846418124389868,23.955382038954937,537973.8308895588,0.1846418124389868
16740.0,1.6809292104071532,23.626362311855935,542226.5761056929,0.18092921040715315
16920.0,1.6773217107856877,23.296397721765448,546419.9276956107,0.1773217107856877
17100.0,1.6738177563648253,22.965675139584782,550553.749220736,0.17381775636482533
17280.0,1.6704157474929486,22.63437984049038,554627.9375920242,0.17041574749294863
17460.0,1.6671140442480759,22.30269533873529,558642.4227529966,0.16711404424807585
17640.0,1.663910968625061,21.970803225844023,562597.1673336484,0.16391096862506105
17820.0,1.6608048067359553,21.63888301234181,566492.1662758699,0.16080480673595532
18000.0,1.657793811021028,21.307111973153038,570327.4464310375,0.15779381102102796
18180.0,1.6548762024679593,20.97566499680372,574103.0661304622,0.1548762024679593
18360.0,1.6520501728367831,20.644714438555212,577819.1147294021,0.15205017283678313
18540.0,1.6493138868881343,20.314429977597097,581475.7121253696,0.1493138868881343
18720.0,1.646665484612425,19.984978478420445,585073.0082514853,0.1466654846124249
18900.0,1.6441030834575667,19.656523856490743,588611.1825456537,0.14410308345756673
19080.0,1.6416247805528803,19.32922694833522,592090.443396354,0.1416247805528803
19260.0,1.6392286549268533,19.003245386156234,595511.027565862,0.13922865492685332
19440.0,1.6369127697164236,18.678733477077806,598873.1995917361,0.13691276971642363
19620.0,1.6346751743654864,18.35584208712926,602177.2511674194,0.13467517436548637
19800.0,1.6325139068103365,18.034718530064914,605423.5005028311,0.13251390681033648
19980.0,1.630426995649776,17.715506461115964,608612.2916658319,0.1304269956497759
20160.0,1.6284124622976375,17.398345775765378,611743.9939054697,0.12841246229763748
20340.0,1.6264683231154953,17.083372513633236,614819.0009579236,0.12646832311549527
20520.0,1.6245925915233579,16.770718767554964,617837.7303360834,0.12459259152335789
20700.0,1.6227832800861521,16.460512597930926,620800.622603711,0.12278328008615214
20880.0,1.621038402573843,16.15287795242126,623708.1406351468,0.12103840257384291
21060.0,1.61935597599305,15.847934591054512,626560.7688615365,0.11935597599305003
21240.0,1.6177340225880565,15.545798016815302,629359.0125045633,0.11773402258805654
21420.0,1.6161705718091295,15.246579411769341,632103.3967986818,0.11617057180912949
21600.0,1.6146636622461055,14.950385578781303,634794.4662028624,0.11466366224610547
21780.0,1.613211343525226,14.657318888873997,637432.7836028597,0.113211343525226
21960.0,1.611811678167249,14.367477234273418,640018.9295050289,0.1118116781672489
22140.0,1.6104627434048806,14.080953987177866,642553.501222721,0.1104627434048806
22320.0,1.6091626329576483,13.797837964284614,645037.1120562921,0.10916263295764828
22500.0,1.6079094587623213,13.518213397101077,647470.3904677703,0.10790945876232128
22680.0,1.6067013526570963,13.242159908062558,649853.9792512215,0.10670135265709635
22860.0,1.6055364680177475,12.9697524924716,652188.5346998664,0.10553646801774752
23040.0,1.6044129813440304,12.701061506269204,654474.7257709949,0.10441298134403043
23220.0,1.603329093794675,12.436152659640445,656713.2332497302,0.10332909379467492
23400.0,1.6022830326693258,12.175087016452043,658904.7489126916,0.10228303266932581
23580.0,1.6012730528358883,11.917920999511809,661049.9746926037,0.10127305283588828
23760.0,1.6002974381017658,11.664706401634346,663149.6218448979,0.10029743810176583
23940.0,1.5993545025275346,11.41549040248922,665204.410117346,0.09935450252753464
24120.0,1.5984425916816916,11.170315591202401,667215.0669237624,0.09844259168169156
24300.0,1.5975600838351462,10.929219994673941,669182.3265228037,0.09756008383514625
24480.0,1.596705391094211,10.692237111567403,671106.9292028858,0.09670539109421106
24660.0,1.595876960470915,10.459395951920548,672989.6204742315,0.0958769604709151
24840.0,1.595073274889537,10.230721082318027,674831.1502690488,0.0950732748895371
25020.0,1.5942928541283277,10.006232676560547,676632.2721508297,0.09429285412832766
25200.0,1.5935342556954708,9.785946571756673,678393.7425337458,0.0935342556954708
25380.0,1.5927960756384183,9.569874329756614,680116.319913102,0.0927960756384183
25560.0,1.5920769492858087,9.358023303838857,681800.764107793,0.09207694928580867
25740.0,1.591375551921271,9.150396710553713,683447.8355156927,0.09137555192127089
25920.0,1.5906905993884997,8.94699370661952,685058.2943828843,0.09069059938849966
26100.0,1.5900208486270828,8.747809470759938,686632.9000876211,0.09002084862708282
26280.0,1.5893650981386442,8.552835290362573,688172.4104398863,0.08936509813864424
26460.0,1.5887221883829692,8.362058652832275,689677.580997396,0.08872218838296919
26640.0,1.5880910021038783,8.17546334150376,691149.1643988667,0.08809100210387832
26820.0,1.5874704645846962,7.99302953597159,692587.9097153416,0.0874704645846962
27000.0,1.5868595438332807,7.814733916687181,693994.5618203453,0.08685954383328065
27180.0,1.5862572506966686,7.640549773665681,695369.8607796052,0.08625725069666856
27360.0,1.585662638905504,7.470447119137647,696714.54126105,0.08566263890550396
27540.0,1.5850748050485068,7.304392803973735,698029.3319657653,0.08507480504850684
27720.0,1.5844928884773588,7.1423506377030055,699314.9550805519,0.08449288847735881
27900.0,1.5839160711424887,6.98428151193911,700572.125752701,0.08391607114248867
28080.0,1.5833435773603217,6.830143527021105,701801.5515875648,0.08334357736032172
28260.0,1.5827746735127135,6.679892121670076,703003.9321694653,0.0827746735127135
28440.0,1.5822086676793428,6.533480205455476,704179.9586064473,0.08220866767934276
28620.0,1.581644909203984,6.390858293859707,705330.313099342,0.08164490920398393
28800.0,1.5810827881956724,6.251974645723409,706455.6685355722,0.08108278819567238
28980.0,1.5805217349658867,6.1167754028484325,707556.688108085,0.08052173496588666
29160.0,1.5799612194029788,5.98520473153044,708634.0249597605,0.07996121940297884
29340.0,1.579400750285188,5.857204965787851,709688.3218536023,0.0794007502851879
29520.0,1.5788398745336887,5.732716752050032,710720.2108689713,0.07883987453368868
29700.0,1.5782781764072138,5.611679195062674,711730.3131240826,0.0782781764072138
29880.0,1.5777152766399065,5.494030004765496,712719.2385249404,0.07771527663990652
30060.0,1.5771508315241585,5.379705643893108,713687.5855408412,0.07715083152415847
30240.0,1.5765845319402803,5.268641476047966,714635.9410065298,0.07658453194028025
30420.0,1.576016102334958,5.160771913991242,715564.8799510483,0.07601610233495792
30600.0,1.5754452996505397,5.056030567895742,716474.9654532695,0.0754452996505397
30780.0,1.574871912207286,4.954350393303635,717366.7485240642,0.07487191220728606
30960.0,1.5742957585408173,4.8556638385304005,718240.7680149997,0.07429575854081727
31140.0,1.5737166861970595,4.759902991256537,719097.5505534259,0.07371668619705951
31320.0,1.5731345704870907,4.666999724047877,719937.6105037546,0.07313457048709071
31500.0,1.5725493132043578,4.576885838546707,720761.449954693,0.07254931320435776
31680.0,1.5719608413068116,4.489493208076424,721569.5587321467,0.07196084130681157
31860.0,1.5713691055665728,4.404753918404522,722362.4144374595,0.07136910556657283
32040.0,1.5707740791898246,4.322600406410668,723140.4825106135,0.07077407918982459
32220.0,1.5701757564096592,4.2429655964097375,723904.2163179673,0.07017575640965923
32400.0,1.5695741510547003,4.165783033882662,724654.0572640662,0.06957415105470033
32580.0,1.5689692950963285,4.090987016372269,725390.4349270132,0.06896929509632854
32760.0,1.5683612371774345,4.018512721305451,726113.7672168482,0.06836123717743448
32940.0,1.5677500411256169,3.9482963305082754,726824.4605563397,0.06775004112561689
33120.0,1.5671357844538094,3.8802751511861957,727522.9100835532,0.06713578445380941
33300.0,1.5665185568513338,3.8143877331476013,728209.4998755198,0.06651855685133379
33480.0,1.5658984586684068,3.7505739820559114,728884.6031922898,0.06589845866840682
33660.0,1.5652755993971392,3.6887752685022708,729548.5827406202,0.06527559939713923
33840.0,1.5646500961520813,3.628934532699094,730201.790956506,0.06465009615208128
34020.0,1.5640220721533686,3.5709963846026693,730844.5703057345,0.06402207215336864
34200.0,1.5633916552155231,3.514907199281958,731477.2536016053,0.06339165521552315
34380.0,1.562758976244951,3.4606152073599437,732100.16433893,0.06275897624495097
34560.0,1.5621241677491733,3.4080705803635567,732713.6170433955,0.06212416774917329
34740.0,1.5614873623607886,3.3572255108283877,733317.9176353447,0.061487362360788556
34920.0,1.5608486913791564,3.308034287014937,733913.3638070073,0.06084869137915638
35100.0,1.560208283332733,3.2604533621040614,734500.245412186,0.06020828333273309
35280.0,1.559566262564977,3.2144414177506775,735078.8448673812,0.0595662625649771
35460.0,1.5589227478466672,3.1699594218862948,735649.4375633207,0.05892274784666718
35640.0,1.5582778510174395,3.126970680673044,736212.2922858419,0.05827785101743954
35820.0,1.5576316756592812,3.085440884524018,736767.6716450562,0.05763167565928118
36000.0,1.5569843158046526,3.0453381481171977,737315.8325117173,0.056984315804652574
36180.0,1.5563358546818422,3.0066330443430647,737857.026459699,0.05633585468184221
36360.0,1.5556863635000666,2.9692986321387056,738391.500213484,0.055686363500066616
36540.0,1.5550359002767637,2.933310478174411,738919.4960995554,0.05503590027676375
36720.0,1.554384508709413,2.8986466723717546,739441.2525005824,0.054384508709413026
36900.0,1.55373221709414,2.8652878372455244,739957.0043112866,0.05373221709413989
37080.0,1.5530790372932548,2.8332171310750187,740466.9833948801,0.053079037293254805
37260.0,1.5524249637537653,2.8024202449235367,740971.4190389663,0.052424963753765264
37440.0,1.5517699725787992,2.7728853935381736,741470.5384098032,0.05176997257879923
37620.0,1.5511140206537564,2.7446033001751693,741964.5670038348,0.051114020653756365
37800.0,1.5504570448288884,2.7175671754091213,742453.7290954083,0.05045704482888835
37980.0,1.5497989611598837,2.691772689997445,742938.2481796079,0.04979896115988369
38160.0,1.5491396642079076,2.6672179418840183,743418.3474091471,0.04913966420790761
38340.0,1.5484790264004216,2.6439034174387896,743894.2500242861,0.048479026400421565
38520.0,1.5478168974539668,2.6218319470421716,744366.1797747536,0.04781689745396678
38700.0,1.5471531038599706,2.6010086551353555,744834.361332678,0.047153103859970624
38880.0,1.5464874484344915,2.581440904869236,745299.0206955544,0.046487448434491485
39060.0,1.5458197099326751,2.5631382374961067,745760.3855783037,0.045819709932675146
39240.0,1.54514964272857,2.546112306659459,746218.6857935024,0.04514964272857003
39420.0,1.5444769765607917,2.530376807747526,746674.153618897,0.04447697656079175
39600.0,1.5438014163443883,2.515947402486871,747127.0241513446,0.04380141634438828
39780.0,1.5431226420491237,2.502841638961644,747577.5356463577,0.04312264204912375
39960.0,1.5424403086442469,2.491078867253817,748025.9298424633,0.04244030864424686
40140.0,1.541754046109666,2.4806801509081264,748472.4522696268,0.04175404610966593
40320.0,1.5410634595133204,2.4716681744340545,748917.3525410249,0.041063459513320355
40500.0,1.54036812915439,2.4640671470646,749360.8846274966,0.04036812915439003
40680.0,1.5396676107718448,2.4579027029990854,749803.3071140364,0.039667610771844775
40860.0,1.5389614358177053,2.453201798363437,750244.8834377418,0.03896143581770528
41040.0,1.5382491117942407,2.4499926051278407,750685.8821066648,0.03824911179424073
41220.0,1.5375301226542037,2.44830440222666,751126.5768990656,0.037530122654203746
41400.0,1.5368039292630722,2.4481674641305795,751567.2470426091,0.03680392926307219
41580.0,1.5360699699221345,2.449612947125055,752008.1773730917,0.036069969922134515
41760.0,1.5353276609511342,2.452672773552541,752449.6584723311,0.035327660951134154
41940.0,1.5345763973290705,2.457379514279222,752891.9867849014,0.034576397329070474
42120.0,1.5338155533916333,2.4637662696489206,753335.4647134382,0.033815553391633335
42300.0,1.5330444835836388,2.4718665491888383,753780.4006922921,0.03304448358363876
42480.0,1.532262523264721,2.481714150332589,754227.109239352,0.0322625232647209
42660.0,1.5314689895664353,2.493343036426611,754675.9109859088,0.03146898956643529
42840.0,1.5306631822988332,2.5067872142857204,755127.1326844803,0.030663182298833247
43020.0,1.5298443849044612,2.5220806115628838,755581.1071945616,0.029844384904461174
43200.0,1.5290118654576637,2.5392569541967833,756038.1734463171,0.029011865457663655
43380.0,1.5281648777069785,2.5583496441989118,756498.6763822729,0.02816487770697851
43560.0,1.5273026621583363,2.5793916380392785,756962.96687712,0.02730266215833632
43740.0,1.5264244471966992,2.6024153258867826,757431.4016357795,0.02642444719669923
