t(s),Tsurface(蚓),Flux(W),E(J),f_liq
0.0,6.0,48.00000000000005,0.0,1.0
180.0,4.400403631638098,40.67273548278932,7321.092386902078,1.0
360.0,3.6972276087581832,37.587055512564014,14086.7623791636,1.0
540.0,3.2592441793660383,35.74616451373717,20521.07199163629,1.0
720.0,2.9521080717664603,34.515809228169495,26733.917652706798,1.0
900.0,2.723916356553311,33.65222324205473,32791.31783627665,1.0
1080.0,2.5464962981958714,33.02281752921808,38735.4249915359,1.0
1260.0,2.545986555237958,33.27599471073985,44725.10403946908,1.0
1440.0,2.5445201609058863,33.520495272373445,50758.793188496296,1.0
1620.0,2.5417036182844384,33.75393491512413,56834.50147321864,1.0
1800.0,2.5374936794584113,33.97569566101618,62950.12669220155,1.0
1980.0,2.531922055715297,34.18555160028401,69103.52598025267,1.0
2160.0,2.5250379202857203,34.383380226667704,75292.53442105286,1.0
2340.0,2.5168951067999807,34.56909813518467,81514.97208538609,1.0
2520.0,2.507548777549515,34.742644464402474,87768.64808897855,1.0
2700.0,2.4970542524584807,34.90397519179939,94051.36362350243,0.9970542524584807
2880.0,2.4854664301833376,35.053060338952626,100360.91448451391,0.9854664301833376
3060.0,2.472839434979531,35.18988224282063,106695.09328822163,0.9728394349795311
3240.0,2.4592263842283275,35.31443437705279,113051.69147609113,0.9592263842283275
3420.0,2.4446792340444485,35.426720521719815,119428.5011700007,0.9446792340444485
3600.0,2.4292486791778765,35.52675417144308,125823.31692086045,0.9292486791778765
3780.0,2.412984091471298,35.61455810958765,132233.93738058623,0.9129840914712979
3960.0,2.3959334857944836,35.69016409753709,138658.1669181429,0.8959334857944836
4140.0,2.3781435055075004,35.753612642369234,145093.81719376936,0.8781435055075004
4320.0,2.3596594217221534,35.80495281644396,151538.70870072927,0.8596594217221534
4500.0,2.340525142227601,35.84424210980739,157990.6722804946,0.8405251422276012
4680.0,2.320783227100956,35.87154630171981,164447.55061480415,0.8207832271009559
4860.0,2.3004749088599454,35.88693934155723,170907.19969628446,0.8004749088599454
5040.0,2.2796401156202846,35.89050323222432,177367.49027808482,0.7796401156202846
5220.0,2.2583174961587025,35.882327911319855,183826.3093021224,0.7583174961587025
5400.0,2.236544446099601,35.86251112683342,190281.5613049524,0.7365444460996011
5580.0,2.2143571346724067,35.83115830527267,196731.1697999015,0.7143571346724067
5760.0,2.1917905316520074,35.78838241093254,203173.07863386936,0.6917905316520074
5940.0,2.1688784342138274,35.7343037956095,209605.25331707907,0.6688784342138274
6120.0,2.1456534935207197,35.669050038487555,216025.68232400683,0.6456534935207197
6300.0,2.1221472409203197,35.59275577623159,222432.37836372852,0.6221472409203197
6480.0,2.098390113675341,35.50556252353809,228823.37961796537,0.5983901136753409
6660.0,2.0744114801805043,35.40761848454772,235196.75094518397,0.5744114801805043
6840.0,2.0502396646417607,35.29907835562946,241550.58504919728,0.5502396646417607
7020.0,2.025901971208895,35.180103120116385,247883.00361081824,0.5259019712088948
7200.0,2.001424707563164,35.05085983561759,254192.1583812294,0.5014247075631642
7380.0,1.9768332079688191,34.911521414558344,260476.23223584992,0.4768332079688191
7560.0,1.952151855802053,34.76226639861088,266733.44018759986,0.45215185580205297
7740.0,1.9274041055738902,34.60327872768147,272962.0303585825,0.4274041055738902
7920.0,1.9026125044651903,34.43474750411367,279160.284909323,0.40261250446519026
8100.0,1.877798713392776,34.25686675275601,285326.52092481905,0.37779871339277604
8280.0,1.8529835276258821,34.06983517752793,291459.0912567741,0.35298352762588214
8460.0,1.8281868969718647,33.87385591509885,297556.38532149186,0.32818689697186465
8640.0,1.8034279455496174,33.66913628627514,303616.82985302137,0.3034279455496174
8820.0,1.7883202190094452,33.51666478940811,309649.82951511483,0.28832021900944516
9000.0,1.7734565537616085,33.35717942701221,315654.121811977,0.2734565537616085
9180.0,1.7589607114347305,33.191553419816586,321628.60142754397,0.25896071143473054
9360.0,1.7449101134465905,33.02037557980712,327572.26903190924,0.24491011344659053
9540.0,1.7313488139294766,32.84402963680517,333484.1943665342,0.2313488139294766
9720.0,1.7182969655075042,32.6627524700521,339363.48981114355,0.21829696550750421
9900.0,1.7057578730508163,32.47667780726866,345209.2918164519,0.20575787305081628
10080.0,1.693723247452086,32.28586901070681,351020.7482383791,0.19372324745208602
10260.0,1.682177098428635,32.090343552004384,356797.0100777399,0.18217709842863505
10440.0,1.6710985972025587,31.89009114816373,362537.22648440936,0.1710985972025587
10620.0,1.6604641609549446,31.685087070348455,368240.5421570721,0.16046416095494465
10800.0,1.6509737746583781,31.479940656798362,373906.9314752958,0.15097377465837813
10980.0,1.6415575823713904,31.26793696987815,379535.1601298739,0.14155758237139038
11160.0,1.6322187936389232,31.04923187110271,385124.0218666724,0.1322187936389232
11340.0,1.6229945966288482,30.824203842159523,390672.3785582611,0.12299459662884815
11520.0,1.6139217528389156,30.593233227331798,396179.1605391808,0.11392175283891559
11700.0,1.6050303398083712,30.35666169297862,401643.35964391695,0.10503033980837118
11880.0,1.5963434070469609,30.114789645009832,407064.0217800187,0.09634340704696087
12060.0,1.5878779341939053,29.86788206744595,412440.24055215897,0.08787793419390533
12240.0,1.5796459458086767,29.616175423676488,417771.1521284207,0.07964594580867668
12420.0,1.5716555075925949,29.35988383924983,423055.9312194857,0.07165550759259487
12600.0,1.5639115577764375,29.099204255739135,428293.78798551875,0.06391155777643753
12780.0,1.55641658508224,28.83432061838824,433483.9656968286,0.05641658508224001
12960.0,1.5480525841026664,28.558335844096035,438624.4661487659,0.04805258410266644
13140.0,1.5401136642404805,28.279631522933613,443714.7998228939,0.04011366424048046
13320.0,1.5325750757954524,27.998222684105432,448754.4799060329,0.03257507579545238
13500.0,1.5254222428425341,27.714190530303323,453743.0342014875,0.025422242842534137
13680.0,1.5186435903740647,27.42763674431222,458680.0088154637,0.01864359037406471
13860.0,1.512228555678288,27.138670764492556,463564.96955307235,0.012228555678287956
14040.0,1.5061669865274383,26.84740586855998,468397.5026094132,0.006166986527438301
14220.0,1.5004489681627262,26.55395797285134,473177.21504452644,0.0004489681627262154
14400.0,1.4878255318338147,26.213665860601328,477895.67489943467,0.0
14580.0,1.476355069796181,25.87684741703204,482553.50743450044,0.0
14760.0,1.4659228913960873,25.542942612979957,487151.23710483685,0.0
14940.0,1.4564299910994392,25.211492889977222,491689.30582503276,0.0
15120.0,1.4477909459934015,24.88212740981637,496168.0887587997,0.0
15300.0,1.439931840902081,24.554549551924325,500587.9076781461,0.0
15480.0,1.4327884581898143,24.228525131742316,504949.0422018597,0.0
15660.0,1.4263047474778003,23.90387242569588,509251.73923848494,0.0
15840.0,1.4204315453902288,23.580453807106284,513496.22092376405,0.0
16020.0,1.4151255078739275,23.25816875126235,517682.69129899127,0.0
16200.0,1.4103482201236202,22.93694798456866,521811.3419362136,0.0
16380.0,1.4060654539758826,22.616748583886988,525882.3566813132,0.0
16560.0,1.4022465475136157,22.297549863549374,529895.9156567522,0.0
16740.0,1.3988638859304443,21.979349915194913,533852.1986414873,0.0
16920.0,1.3958924663432941,21.662162688977396,537751.3879255032,0.0
17100.0,1.3933095322653724,21.34601552414501,541593.6707198493,0.0
17280.0,1.391094265949261,21.030947053080883,545379.2411894038,0.0
17460.0,1.3892275288676337,20.71700541615909,549108.3021643125,0.0
17640.0,1.3876916422933998,20.404246735698816,552781.0665767383,0.0
17820.0,1.386470201335881,20.0927338063039,556397.7586618729,0.0
18000.0,1.385547916938033,19.782534966288278,559958.6149558048,0.0
18180.0,1.3849104812855904,19.47372312099717,563463.8851175843,0.0
18360.0,1.384544452858286,19.166374893864436,566913.8325984798,0.0
18540.0,1.3844371579956458,18.86056988519393,570308.7351778147,0.0
18720.0,1.3845766063796032,18.55639002207106,573648.8853817875,0.0
18900.0,1.3849514182732603,18.253918985628697,576934.5907992007,0.0
19080.0,1.385550761716049,17.95324170421862,580166.1743059601,0.0
19260.0,1.3863642981737205,17.65444390295729,583343.9742084924,0.0
19440.0,1.387382135388183,17.35761170170292,586468.344314799,0.0
19620.0,1.3885947863762507,17.06283125482949,589539.6539406682,0.0
19800.0,1.3899931336954414,16.77018842724922,592558.2878575731,0.0
19980.0,1.3915683982351268,16.47976850203193,595524.6461879389,0.0
20160.0,1.3933121119077405,16.19165591571562,598439.1442527677,0.0
20340.0,1.3952160937115017,15.905934018019408,601302.2123760112,0.0
20520.0,1.3972724287166685,15.622684853184419,604114.2956495844,0.0
20700.0,1.3994734495944803,15.341988960595899,606875.8536624917,0.0
20880.0,1.4018117203640519,15.063925192696408,609587.360197177,0.0
21060.0,1.404280022079393,14.788570548497987,612249.3028959067,0.0
21240.0,1.4068713402180795,14.51600002125094,614862.1828997319,0.0
21420.0,1.4095788535661484,14.246286459036181,617426.5144623584,0.0
21600.0,1.4123959244216153,13.979500437223763,619942.8245410587,0.0
21780.0,1.4153160899624984,13.71571014188953,622411.6523665988,0.0
21960.0,1.4183330546451174,13.45498126340657,624833.5489940121,0.0
22140.0,1.4214406835153004,13.19737689953437,627209.0768359283,0.0
22320.0,1.4246329963294764,12.942957467419935,629538.8091800639,0.0
22500.0,1.4279041623948987,12.691780624000316,631823.329692384,0.0
22680.0,1.431248496048722,12.443901194363642,634063.2319073695,0.0
22860.0,1.4346604527046836,12.199371107680214,636259.1187067518,0.0
23040.0,1.4381346254038965,11.958239340364425,638411.6017880174,0.0
23220.0,1.4416657418129946,11.720551866169219,640521.3011239279,0.0
23400.0,1.445248661618703,11.486351612950793,642588.8444142591,0.0
23580.0,1.4488783742729945,11.255678425870876,644614.8665309158,0.0
23760.0,1.4525499970474347,11.028569036831492,646600.0089575455,0.0
23940.0,1.4562587733592427,10.805057039958895,648544.9192247381,0.0
24120.0,1.4600000713350123,10.58517287297279,650450.2503418733,0.0
24300.0,1.4637693825811062,10.368943804293625,652316.6602266461,0.0
24480.0,1.4675623211324316,10.15639392575526,654144.811133282,0.0
24660.0,1.471374622553718,9.947544150801086,655935.3690804262,0.0
24840.0,1.4752021431695872,9.742412218052472,657689.0032796756,0.0
25020.0,1.4790408594016327,9.54101270014637,659406.385565702,0.0
25200.0,1.4828868671924906,9.34335701774476,661088.1898288961,0.0
25380.0,1.4867363814984704,9.14945345862461,662735.0914514485,0.0
25560.0,1.4905857358337442,8.959307201760208,664347.7667477654,0.0
25740.0,1.4944313818504273,8.772920346312265,665926.8924101016,0.0
25920.0,1.4982698889400918,8.590291945439912,667473.1449602807,0.0
26100.0,1.5006379743188636,8.405832228148917,668986.1947613475,0.0006379743188635878
26280.0,1.5031094710229382,8.22566016018591,670466.813590181,0.003109471022938237
26460.0,1.5056681425574772,8.049702093617581,671915.7599670321,0.005668142557477163
26640.0,1.5082997594630732,7.877890596940481,673333.7802744814,0.008299759463073153
26820.0,1.510991747651532,7.710162854283002,674721.6095882524,0.010991747651531991
27000.0,1.5137329532486883,7.546459574821008,676079.9723117201,0.013732953248688284
27180.0,1.5165134578432962,7.386724143766338,677409.5826575981,0.016513457843296164
27360.0,1.5193244242433848,7.230901930291575,678711.1450050506,0.019324424243384763
27540.0,1.522157964557685,7.078939714971264,679985.3541537455,0.02215796455768504
27720.0,1.5250070262841195,6.930785215283084,681232.8954924964,0.02500702628411955
27900.0,1.5278652935592025,6.786386694133924,682454.4450974405,0.02786529355920253
28080.0,1.5307271013951738,6.64569263957228,683650.6697725635,0.03072710139517376
28260.0,1.5335873611181412,6.508651505843819,684822.2270436154,0.0335873611181412
28440.0,1.5364414954908392,6.375211507418797,685969.7651149508,0.03644149549083919
28620.0,1.5392853822166332,6.245320458804348,687093.9227975357,0.03928538221663325
28800.0,1.5421153046989713,6.118925653946742,688195.329415246,0.04211530469897129
28980.0,1.5449279090820356,5.9959737798728945,689274.6046956232,0.04492790908203559
29160.0,1.5477201667288505,5.876410859941591,690332.3586504126,0.04772016672885049
29340.0,1.550489341405958,5.760182222694292,691369.1914504976,0.050489341405957955
29520.0,1.5532329605414161,5.647232492826131,692385.6932992063,0.05323296054141613
29700.0,1.5559487900075109,5.53750560125326,693382.4443074319,0.05594879000751085
29880.0,1.558634811952857,5.43094481164414,694360.0143735278,0.058634811952857024
30060.0,1.5612892052721141,5.327492761117493,695318.9630705289,0.06128920527211412
30240.0,1.5639103283565947,5.227091513097661,696259.8395428865,0.06391032835659471
30420.0,1.566496703816806,5.129682620565359,697183.1824145883,0.06649670381680606
30600.0,1.569047004909332,5.035207198153533,698089.5197102559,0.06904700490933191
30780.0,1.571560043436367,4.943606001720255,698979.3687905655,0.07156004343636702
30960.0,1.5740347589173629,4.854819514186584,699853.2363031191,0.07403475891736289
31140.0,1.5764702088592175,4.76878803656185,700711.6181497002,0.07647020885921751
31320.0,1.5788655599749122,4.685451783193913,701554.9994706751,0.07886555997491218
31500.0,1.581220080220796,4.60475098038142,702383.8546471437,0.08122008022079608
31680.0,1.583533131540403,4.526625967570685,703198.6473213065,0.0835331315404031
31860.0,1.585804163217989,4.451017300433506,703999.8304353845,0.0858041632179889
32040.0,1.5880327057582857,4.37786585518638,704787.846289318,0.0880327057582857
32220.0,1.5902183652205455,4.307112933566915,705563.12661736,0.0902183652205455
32400.0,1.5923608179449649,4.238700367931507,706326.0926835877,0.09236081794496487
32580.0,1.594459805618319,4.172570625980743,707077.1553962643,0.09445980561831901
32760.0,1.5965151306332261,4.108666914655992,707816.7154409024,0.09651513063322614
32940.0,1.5985266517020313,4.046933282783576,708545.1634318035,0.09852665170203134
33120.0,1.6004942796920594,3.9873147220722305,709262.8800817764,0.10049427969205937
33300.0,1.6024179736539461,3.9297572660957125,709970.2363896737,0.10241797365394611
33480.0,1.6042977370191045,3.8742080869164566,710667.5938453187,0.1042977370191045
33660.0,1.6061336139461468,3.8206155890276974,711355.3046513436,0.10613361394614684
33840.0,1.6079256857993571,3.7689295003119003,712033.7119613998,0.10792568579935713
34020.0,1.609674067745151,3.719100959731901,712703.1501341515,0.1096740677451511
34200.0,1.6113789054549563,3.6710826014890565,713363.9450024195,0.11137890545495632
34380.0,1.6130403719050532,3.624828635399439,714016.4141567914,0.11304037190505323
34560.0,1.614658664265821,3.5802949232555585,714660.8672429774,0.11465866426582094
34740.0,1.6162340008744167,3.5374390509565674,715297.6062721496,0.11623400087441671
34920.0,1.6177666182863288,3.4962203962056293,715926.9259434666,0.11776661828632884
35100.0,1.6192567684024404,3.456600191587931,716549.1139779524,0.11925676840244037
35280.0,1.6207047156692782,3.4185415828581562,717164.4514628669,0.1207047156692782
35460.0,1.6221107343510195,3.3820096822807417,717773.2132056773,0.12211073435101949
35640.0,1.6234751058725725,3.3469716168815284,718375.668096716,0.12347510587257249
35820.0,1.6247981162337048,3.3133965714838185,718972.0794795832,0.12479811623370485
36000.0,1.6260800534947397,3.28125582641707,719562.7055283382,0.12608005349473972
36180.0,1.6273212053347748,3.2505227898012214,720147.7996305025,0.12732120533477476
36360.0,1.628521856683779,3.221173024324574,720727.6107748809,0.1285218566837789
36540.0,1.629682287430209,3.193184268448274,721302.3839432015,0.12968228743020904
36720.0,1.6308027702060266,3.1665364519853383,721872.3605045589,0.1308027702060266
36900.0,1.6318835682512003,3.14121170601745,722437.7786116421,0.1318835682512003
37080.0,1.6329249333598848,3.1171943671274898,722998.8735977251,0.13292493335988476
37260.0,1.6339271039105836,3.0944709759412006,723555.8783733945,0.1339271039105836
37440.0,1.634890302982631,3.073030269986042,724109.023821992,0.13489030298263094
37620.0,1.6358147365613542,3.0528631708904164,724658.5391927522,0.13581473656135423
37800.0,1.6367005918342539,3.033962765961157,725204.6524906253,0.13670059183425387
37980.0,1.6375480355804868,3.0163242841918367,725747.5908617798,0.13754803558048678
38160.0,1.6383572126558665,2.9999450667688907,726287.5809737982,0.13835721265586653
38340.0,1.639128244575493,2.984824532156804,726824.8493895864,0.1391282445754931
38520.0,1.639861228196009,2.9709641358575705,727359.6229340407,0.139861228196009
38700.0,1.6405562344993367,2.9583673249532625,727892.1290525324,0.14055623449933674
38880.0,1.6412133074795971,2.947039487553826,728422.596160292,0.14121330747959715
39060.0,1.6418324631347314,2.9369878972852295,728951.2539818034,0.1418324631347314
39240.0,1.6424136885641887,2.9282216529655187,729478.3338793372,0.14241368856418868
39420.0,1.6429569411738147,2.9207516136283065,730004.0691697903,0.14295694117381474
39600.0,1.643462147988901,2.914590329064923,730528.695429022,0.1434621479889009
39780.0,1.6439292050761167,2.9097519660672253,731052.4507829141,0.14392920507611673
39960.0,1.6443579770748546,2.9062522305637715,731575.5761844155,0.14435797707485465
40140.0,1.6447482968382576,2.9041082858515854,732098.3156758688,0.14474829683825763
40320.0,1.6450999651840035,2.9033386671352024,732620.9166359531,0.14509996518400348
40500.0,1.6454127507546632,2.9039631925931397,733143.6300106199,0.1454127507546632
40680.0,1.6456863899872316,2.9060028711997976,733666.7105274359,0.1456863899872316
40860.0,1.64592058719117,2.909479807538011,734190.4168927927,0.14592058719116996
41040.0,1.6461150147340977,2.914417103843934,734715.0119714846,0.14611501473409771
41220.0,1.6462693133340027,2.920838759531698,735240.7629482003,0.14626931333400273
41400.0,1.646383092456625,2.9287695684502135,735767.9414705214,0.14638309245662495
41580.0,1.6464559308164415,2.938235014128842,736296.8237730645,0.14645593081644148
41760.0,1.6464873769794313,2.9492611632719425,736827.6907824535,0.14648737697943126
41940.0,1.6464769500656118,2.9618745577653316,737360.8282028512,0.1464769500656118
42120.0,1.6464241405490985,2.9761021054592924,737896.526581834,0.14642414054909847
42300.0,1.646328411153228,2.991970969994244,738435.0813564329,0.14632841115322792
42480.0,1.6461891978381022,3.0095084599354625,738976.7928792213,0.14618919783810225
42660.0,1.6460059108776957,3.028741917483009,739521.9664243682,0.14600591087769565
42840.0,1.6457779360234999,3.049698607021959,740070.9121736322,0.14577793602349987
43020.0,1.6455046357514704,3.0724056037762137,740623.9451823119,0.14550463575147043
43200.0,1.6451853505889218,3.0968896828268226,741181.3853252208,0.1451853505889218
43380.0,1.6448194005177925,3.123177208752414,741743.5572227963,0.14481940051779252
43560.0,1.6444060864506214,3.1512940261457016,742310.7901475024,0.14440608645062136
43740.0,1.643944691775371,3.181265351255383,742883.4179107284,0.14394469177537106
43920.0,1.6434344839651633,3.2131156649978334,743461.778730428,0.14343448396516334
44100.0,1.6428747162488369,3.2468686075772504,744046.2150797918,0.14287471624883685
44280.0,1.6422646293381387,3.282546874946593,744637.0735172823,0.14226462933813866
44460.0,1.6416034532072818,3.3201721173351384,745234.7044984025,0.14160345320728185
44640.0,1.6408904089204965,3.35976484006101,745839.4621696136,0.14089040892049653
44820.0,1.6401247105031458,3.401344306839444,746451.7041448447,0.1401247105031458
45000.0,1.6393055668519088,3.444928445789378,747071.7912650867,0.13930556685190876
45180.0,1.6384321836794873,3.490533758332464,747700.0873415866,0.1384321836794873
45360.0,1.637503765489252,3.538175231169708,748336.9588831972,0.13750376548925192
45540.0,1.6365195175752303,3.58786625151175,748982.7748084692,0.1365195175752303
45720.0,1.635478648042803,3.6396185257292784,749637.9061431005,0.13547864804280296
45900.0,1.634380369845491,3.6934420015805025,750302.725703385,0.13438036984549107
