t(s),Tsurface(蚓),Flux(W),E(J),f_liq
0.0,6.0,24.000000000000025,0.0,1.0
180.0,5.578902135516733,23.18944374623695,4174.099874322651,1.0
360.0,5.427043454229625,23.017511038530976,8317.251861258228,1.0
540.0,5.326790212280279,22.964966969557267,12450.945915778535,1.0
720.0,5.239777331244292,22.939612078557793,16580.076089918937,1.0
900.0,5.156669789613169,22.918750294153064,20705.45114286649,1.0
1080.0,5.075012624175352,22.896285625999845,24826.78255554646,1.0
1260.0,4.994142740574591,22.87048502331518,28943.469859743193,1.0
1440.0,4.913881584402181,22.840809404351855,33054.815552526525,1.0
1620.0,4.834184502616182,22.807056807298633,37160.08577784028,1.0
1800.0,4.75504432251813,22.769124845773987,41258.528250079595,1.0
1980.0,4.676464413305334,22.726943807896593,45349.378135500985,1.0
2160.0,4.59845108129522,22.680457622246713,49431.86050750539,1.0
2340.0,4.521011405569308,22.629618398423826,53505.19181922168,1.0
2520.0,4.444152615207217,22.57438483968606,57568.58109036517,1.0
2700.0,4.367881905279301,22.514721760705676,61621.2310072922,1.0
2880.0,4.29220637815638,22.450599917691246,65662.33899247662,1.0
3060.0,4.217133020803643,22.381995923219215,69691.09825865609,1.0
3240.0,4.142668692560195,22.3088921803967,73706.6988511275,1.0
3420.0,4.068820116122279,22.23127681767009,77708.32867830811,1.0
3600.0,3.995593869652424,22.149143619050243,81695.17452973715,1.0
3780.0,3.9229963794236693,22.062491948406382,85666.4230804503,1.0
3960.0,3.8510339128329187,21.97132666760649,89621.26188061947,1.0
4140.0,3.7797125717384197,21.875658048614113,93558.88032937,1.0
4320.0,3.7090382861106055,21.77550167974838,97478.47063172472,1.0
4500.0,3.6390168079949583,21.67087836635211,101379.2287376681,1.0
4680.0,3.5696537057876623,21.56181402612217,105260.3552623701,1.0
4860.0,3.5009543588252816,21.448339579367804,109121.0563866563,1.0
5040.0,3.432923952289238,21.330490834465028,112960.54473686001,1.0
5220.0,3.365567472425407,21.208308368780003,116778.04024324041,1.0
5400.0,3.2988897020787475,21.08183740533804,120572.77097620125,1.0
5580.0,3.2328952165422593,20.951127685514702,124343.9739595939,1.0
5760.0,3.1675883797192497,20.816233338030163,128090.89596043933,1.0
5940.0,3.102973340597166,20.677212744525153,131812.79425445385,1.0
6120.0,3.0390540300310858,20.534128401998633,135508.9373668136,1.0
6300.0,2.975834157834282,20.387046782386555,139178.60578764317,1.0
6480.0,2.913317210173074,20.23603818955822,142821.09266176366,1.0
6660.0,2.8515064472625786,20.081176614005777,146435.7044522847,1.0
6840.0,2.790404901359756,19.92253958549931,150021.76157767457,1.0
7020.0,2.7300153750497143,19.76020802397595,153578.59902199023,1.0
7200.0,2.670340439820925,19.594266088928425,157105.56691799735,1.0
7380.0,2.6113824349246455,19.424801027553304,160602.03110295694,1.0
7560.0,2.5531434665136223,19.251903021914416,164067.37364690154,1.0
7740.0,2.5532402401712044,19.255542475275842,167533.3712924512,1.0
7920.0,2.5510475711934055,19.24751784003317,170997.92450365715,1.0
8100.0,2.54591711153232,19.225726262581205,174458.55523092177,1.0
8280.0,2.5379458971080284,19.190401244349665,177912.8274549047,1.0
8460.0,2.527460758873437,19.14251687080497,181358.4804916496,1.0
8640.0,2.5148321305164716,19.08320665572393,184793.4576896799,1.0
8820.0,2.506351012926575,19.032375976465815,188219.28536544373,1.0
9000.0,2.4933107171869278,18.96250028781825,191632.53541725103,0.9933107171869278
9180.0,2.477319093410174,18.878644892808133,195030.6914979565,0.9773190934101739
9360.0,2.459601471940253,18.784705960348983,198411.9385708193,0.9596014719402528
9540.0,2.4407884576276655,18.682717972307586,201774.82780583468,0.9407884576276655
9720.0,2.421220829637908,18.57380927288117,205118.11347495328,0.9212208296379081
9900.0,2.399310935689085,18.452961950000415,208439.64662595335,0.8993109356890852
10080.0,2.3891637867055446,18.36529647413311,211745.3999912973,0.8891637867055446
10260.0,2.3800244851981507,18.276562429185766,215035.18122855073,0.8800244851981507
10440.0,2.3716320825157036,18.185984681648037,218308.65847124739,0.8716320825157036
10620.0,2.3637481430216574,18.09285947950313,221565.37317755795,0.8637481430216574
10800.0,2.356195724427119,17.99668056765915,224804.7756797366,0.8561957244271192
10980.0,2.348853132878224,17.897120348544885,228026.25734247468,0.8488531328782241
11160.0,2.341640196844429,17.793986635907007,231229.17493693795,0.8416401968444291
11340.0,2.3345059331499094,17.687183516350707,234412.86796988107,0.8345059331499094
11520.0,2.327419219891245,17.576681617210173,237576.6706609789,0.8274192198912451
11700.0,2.3203621841166266,17.46249693780231,240719.92010978333,0.8203621841166266
11880.0,2.3133256501843835,17.344676207603186,243841.9618271519,0.8133256501843835
12060.0,2.306306054449728,17.22328690231575,246942.15346956876,0.806306054449728
12240.0,2.299303373791872,17.09841048822353,250019.867357449,0.7993033737918722
12420.0,2.292319745334845,16.97013787219584,253074.49217444425,0.792319745334845
12600.0,2.2853585538307817,16.838566347030042,256105.43411690966,0.7853585538307817
12780.0,2.278423833951513,16.703797545627367,259112.11767512257,0.7784238339515128
12960.0,2.271519883822574,16.565936073155868,262093.98616829063,0.7715198838225739
13140.0,2.2646510197154996,16.4250885931004,265050.5021150487,0.7646510197154996
13320.0,2.25782142463338,16.281363215794652,267981.14749389177,0.7578214246333799
13500.0,2.2510350589767154,16.13486908735709,270885.42392961605,0.7510350589767154
13680.0,2.2442956119198274,15.985716110355797,273762.8528294801,0.7442956119198274
13860.0,2.2376064791771566,15.834014750117433,276612.9754845012,0.7376064791771566
14040.0,2.230970757591974,15.67987589585473,279435.35314575507,0.7309707575919742
14220.0,2.224391250181744,15.523410756085568,282229.5670818505,0.724391250181744
14400.0,2.2178704774283267,15.364730774758911,284995.2186213071,0.7178704774283267
14580.0,2.2114106920479712,15.203947559173246,287731.9291819583,0.7114106920479712
14760.0,2.2050138954457204,15.041172813912851,290439.34028846264,0.7050138954457204
14940.0,2.198681854706943,14.876518277128552,293117.1135783458,0.6986818547069431
15120.0,2.192416119410142,14.710095656895174,295764.9307965869,0.6924161194101419
15300.0,2.18621803783089,14.54201656630867,298382.4937785225,0.6862180378308902
15480.0,2.180088772294513,14.372392456604025,300969.5244207112,0.6800887722945128
15660.0,2.1740293135572575,14.201334547976657,303525.76463934703,0.6740293135572575
15840.0,2.1680404941739195,14.028953758049353,306050.9763157959,0.6680404941739195
16020.0,2.162123000858852,13.855360628092358,308544.94122885255,0.6621230008588519
16200.0,2.156277385876899,13.680665247203358,311007.46097334917,0.6562773858768991
16380.0,2.1505040775176276,13.504977174714167,313438.3568647977,0.6505040775176276
16560.0,2.144803389714742,13.328405361119755,315837.46982979926,0.6448033897147418
16740.0,2.1391755308757827,13.151058067838935,318204.66028201027,0.6391755308757827
16920.0,2.1336206119870145,12.973042786117626,320539.8079835114,0.6336206119870145
17100.0,2.1281386540562335,12.794466155377494,322842.81189147936,0.6281386540562335
17280.0,2.122729594952812,12.61543388130451,325113.58999011415,0.622729594952812
17460.0,2.117393295700327,12.436050653957384,327352.07910782646,0.6173932957003272
17640.0,2.11212954627289,12.256420066161546,329558.2347197355,0.61212954627289
17820.0,2.1069380709420256,12.076644532441227,331732.03073557495,0.6069380709420256
18000.0,2.101818533216841,11.8968252087248,333873.4592731454,0.6018185332168411
18180.0,2.096770540416315,11.71706191304683,335982.53041749384,0.596770540416315
18360.0,2.091793647908851,11.537453047454697,338059.27196603565,0.591793647908851
18540.0,2.0868873630508786,11.358095521314759,340103.7291598723,0.5868873630508786
18720.0,2.082051148853132,11.179084676201219,342115.9644015885,0.5820511488531319
18900.0,2.0772844274003974,11.000514212537421,344096.05695984524,0.5772844274003974
19080.0,2.072586583047927,10.82247611814974,346044.1026611122,0.5725865830479271
19260.0,2.0679569654153234,10.645060598881448,347960.21356891084,0.5679569654153234
19440.0,2.0633948921965852,10.468356011406051,349844.5176509639,0.5633948921965852
19620.0,2.058899651803051,10.292448798367804,351697.1584346701,0.5588996518030509
19800.0,2.0544705058542063,10.117423425969148,353518.2946513446,0.5544705058542063
19980.0,2.0501066915297756,9.943362324116102,355308.0998696855,0.5501066915297756
20160.0,2.0458074237950403,9.770345829223448,357066.7621189457,0.5458074237950403
20340.0,2.041571897510083,9.598452129774406,358794.4835023051,0.541571897510083
20520.0,2.037399289432454,9.427757214721266,360491.4798009549,0.5373992894324542
20700.0,2.033288760121745,9.258334824806504,362157.9800694201,0.5332887601217449
20880.0,2.029239455753587,9.090256406876502,363794.2262226579,0.5292394557535869
21060.0,2.0252505098497693,8.92359107125321,365400.47261548345,0.5252505098497693
21240.0,2.0213210449303767,8.758405552222433,366976.9856148835,0.5213210449303767
21420.0,2.0174501740932147,8.594764171691274,368524.04316578794,0.5174501740932147
21600.0,2.0136370025251247,8.432728806060297,370041.9343508788,0.5136370025251247
21780.0,2.0098806289492783,8.272358856350836,371530.95894502196,0.5098806289492783
21960.0,2.0061801470120337,8.113711221620948,372991.4269649137,0.5061801470120337
22140.0,2.002534646612502,7.956840275698459,374423.65821453946,0.502534646612502
22320.0,1.998943215177573,7.801797847253313,375827.98182704503,0.498943215177573
22500.0,1.9954049388848125,7.648633203226229,377204.7358036258,0.4954049388848125
22680.0,1.9919189038353138,7.497393035624861,378554.26655003824,0.4919189038353138
22860.0,1.9884841971783258,7.348121451693511,379876.9284113431,0.4884841971783258
23040.0,1.985099908189231,7.200859967457012,381173.08320548537,0.4850999081892311
23220.0,1.9817651293022172,7.055647504634121,382443.0997563195,0.48176512930221715
23400.0,1.9784789570988195,6.912520390910964,383687.35342668346,0.4784789570988195
23580.0,1.9752404932533252,6.7715123635591965,384906.2256521241,0.4752404932533252
23760.0,1.9720488454358827,6.63265457637983,386100.1034758725,0.47204884543588266
23940.0,1.9689031281740623,6.495975609947294,387269.379085663,0.4689031281740623
24120.0,1.9658024636734557,6.361501485124707,388414.4493529855,0.4658024636734557
24300.0,1.9627459825978593,6.229255679815604,389535.7153753523,0.46274598259785926
24480.0,1.959732824809473,6.0992591489133,390633.5820221567,0.459732824809473
24660.0,1.9567621400694966,5.971530347404181,391708.4574846894,0.45676214006949656
24840.0,1.9538330886994406,5.846085256576357,392760.7528308732,0.4538330886994406
25020.0,1.950944842203434,5.7229374132812865,393790.88156526384,0.4509448422034339
25200.0,1.948096583851781,5.602097942190968,394799.2591948582,0.44809658385178097
25380.0,1.9452875092259725,5.48357559098911,395786.3028012362,0.4452875092259725
25560.0,1.9425168267253687,5.367376768430807,396752.4306195538,0.44251682672536874
25740.0,1.939783758035737,5.253505585200346,397698.06162488984,0.4397837580357371
25920.0,1.9370875385598385,5.141963897493645,398623.6151264387,0.4370875385598385
26100.0,1.9344274178102523,5.032751353246816,399529.5103700231,0.4344274178102523
26280.0,1.9318026597646407,4.925865440929583,400416.1661493904,0.4318026597646407
26460.0,1.9292125431836606,4.821301540817348,401284.00042673753,0.42921254318366064
26640.0,1.9266563618917496,4.719052978653202,402133.4299628951,0.4266563618917496
26820.0,1.9241334250210413,4.619111081606649,402964.8699575843,0.42413342502104134
27000.0,1.9216430572186742,4.521465236433124,403778.73370014224,0.42164305721867423
27180.0,1.919184598817796,4.426102949734629,404575.43223109446,0.419184598817796
27360.0,1.9167574059725851,4.333009910218985,405355.3740149339,0.41675740597258515
27540.0,1.9143608507576622,4.242170052851969,406118.9646244472,0.41436085075766216
27720.0,1.9119943212322643,4.153565624793798,406866.6064369101,0.4119943212322643
27900.0,1.9096572214696335,4.0671772530088175,407598.6983424517,0.40965722146963346
28080.0,1.9073489715520602,3.9829840134345065,408315.6354648699,0.4073489715520602
28260.0,1.9050690075321077,3.900963501593687,409017.8088951568,0.4050690075321077
28440.0,1.9028167813605428,3.82109190453148,409705.60543797247,0.4028167813605428
28620.0,1.9005917607815614,3.7433440739565826,410379.4073712847,0.40059176078156145
28800.0,1.8983934291959357,3.667693600464449,411039.59221936826,0.3983934291959357
28980.0,1.8962212854927307,3.5941128887184948,411686.5325393376,0.3962212854927307
29160.0,1.8940748438503192,3.522573233463615,412320.59572136105,0.3940748438503192
29340.0,1.8919536335074076,3.4530448962452582,412942.1438026852,0.39195363350740764
29520.0,1.889857198504888,3.3854971827062537,413551.5332955723,0.389857198504888
29700.0,1.887785097399317,3.3198985203322295,414149.1150292321,0.3877850973993171
29880.0,1.88573690294891,3.2562165365164204,414735.23400580505,0.38573690294890994
30060.0,1.8837122017729262,3.1944181368135536,415310.2292704315,0.3837122017729262
30240.0,1.8817105939854186,3.134469583252707,415874.433795417,0.3817105939854186
30420.0,1.8797316928042973,3.0763365725787164,416428.17437848117,0.3797316928042973
30600.0,1.8777751241367475,3.0199843142918397,416971.7715550537,0.3777751241367475
30780.0,1.875840526142033,2.9653776083560635,417505.5395245578,0.375840526142033
30960.0,1.8739275487727833,2.9124809224467385,418029.78609059827,0.37392754877278334
31140.0,1.8720358532958699,2.861258468609176,418544.8126149479,0.37203585329586986
31320.0,1.8701651117940277,2.8116742792009686,419050.91398520407,0.37016511179402767
31500.0,1.8683150066493899,2.763692281992042,419548.37859596265,0.3683150066493899
31680.0,1.866485230010147,2.7172763742978816,420037.48834333627,0.3664852300101471
31860.0,1.864675483241547,2.672390496023275,420518.51863262046,0.3646754832415471
32040.0,1.8628854763625033,2.6289987014957177,420991.73839888966,0.36288547636250335
32220.0,1.861114927469075,2.587065229969974,421457.4101402843,0.36111492746907503
32400.0,1.8593635621461135,2.546554574687591,421915.78996372805,0.35936356214611354
32580.0,1.857631112868386,2.5074315503777944,422367.127642796,0.357631112868386
32760.0,1.8559173183925053,2.469661359089174,422811.6666874321,0.3559173183925053
32940.0,1.8542219231409975,2.4332096542444246,423249.6444251961,0.35422192314099754
33120.0,1.8525446765798628,2.398042602813897,423681.2920937026,0.35254467657986277
33300.0,1.8508853325909815,2.364126945506947,424106.83494389383,0.35088533259098154
33480.0,1.8492436488407293,2.331430054883998,424526.492353773,0.34924364884072934
33660.0,1.847619386146171,2.2999199912958694,424940.4779522062,0.34761938614617094
33840.0,1.846012307840191,2.2695655565611044,425348.99975238723,0.3460123078401911
34020.0,1.8444221791369364,2.2403363452962077,425752.26029454055,0.3444221791369364
34200.0,1.8428487664989233,2.2122027938181206,426150.4567974278,0.34284876649892326
34380.0,1.841291837007169,2.1851362265428067,426543.78131820547,0.3412918370071689
34560.0,1.8397511577356853,2.1591088998085413,426932.420920171,0.3397511577356853
34740.0,1.838226495131677,2.1340940430573587,427316.5578479213,0.3382264951316769
34920.0,1.8367176144027524,2.110065897313145,427696.3697094377,0.3367176144027524
35100.0,1.8352242789124604,2.086999750899915,428072.0296645997,0.3352242789124604
35280.0,1.8337462495854215,2.064871972349177,428443.70661962254,0.33374624958542154
35460.0,1.8322832843233292,2.043660040450481,428811.5654269036,0.3322832843233292
35640.0,1.8308351374330456,2.023342571404869,429175.7670897565,0.3308351374330456
35820.0,1.829401559068011,2.0038993430463687,429536.46897150483,0.32940155906801105
36000.0,1.8279822946841404,1.9853113161022693,429893.8250084032,0.3279822946841404
36180.0,1.8265770845113627,1.9675606524687062,430247.9859258476,0.3265770845113627
36360.0,1.825185663041914,1.9506307304836625,430599.09945733467,0.3251856630419141
36540.0,1.8238077585364763,1.9345061571853708,430947.31056562805,0.32380775853647625
36720.0,1.822443092549188,1.9191727775497678,431292.761665587,0.3224430925491879
36900.0,1.821091379472544,1.9046176807066333,431635.5928481142,0.32109137947254407
37080.0,1.8197523261031465,1.8908292031396043,431975.94210467936,0.3197523261031465
37260.0,1.8184256312292124,1.877796928881305,432313.945551878,0.3184256312292124
37440.0,1.8171109852407252,1.8655116867203945,432649.73765548767,0.31711098524072523
37620.0,1.8158080697630499,1.8539655444432106,432983.45145348745,0.31580806976304987
37800.0,1.8145165573147888,1.8431518001382494,433315.2187775123,0.3145165573147888
37980.0,1.8132361109906092,1.8330649705975026,433645.1704722199,0.3132361109906092
38160.0,1.8119663841697096,1.8237007768540534,433973.4366120536,0.31196638416970957
38340.0,1.8107070202505666,1.8150561269009322,434300.1467148958,0.3107070202505666
38520.0,1.8094576524125088,1.8071290956415191,434625.42995211127,0.3094576524125088
38700.0,1.808217903404648,1.7999189021271493,434949.4153544942,0.30821790340464794
38880.0,1.806987385362624,1.793425884142555,435272.2320136398,0.30698738536262393
39060.0,1.805765699653559,1.78765147020497,435594.0092782767,0.30576569965355893
39240.0,1.8045524367495716,1.782598149047492,435914.87694510526,0.30455243674957155
39420.0,1.8033471761301327,1.778269436662013,436234.96544370445,0.30334717613013273
39600.0,1.8021494862135006,1.7746698409816604,436554.40601508116,0.3021494862135006
39780.0,1.800958924317392,1.7718048242870086,436873.33088345284,0.300958924317392
39960.0,1.7997750366490075,1.7696807634245573,437191.8734208693,0.2997750366490075
40140.0,1.798597358324462,1.76830490793,437510.1683042967,0.2985973583244621
40320.0,1.7974254134176142,1.7676853361526235,437828.35166480416,0.2974254134176142
40500.0,1.796258715038218,1.7678309094807398,438146.5612285107,0.2962587150382181
40680.0,1.795096765439293,1.768751224771609,438464.9364489696,0.2950967654392931
40860.0,1.7939390561535031,1.7704565650922781,438783.6186306862,0.29393905615350313
41040.0,1.7927850681583284,1.7729578488809452,439102.7510434848,0.2927850681583284
41220.0,1.791634272069714,1.7762665776409994,439422.47902746015,0.29163427206971404
41400.0,1.7904861283638556,1.7803947822825523,439742.950088271,0.29048612836385557
41580.0,1.7893400876267016,1.785354968228391,440064.3139825521,0.2893400876267016
41760.0,1.788195590830718,1.791160059403391,440386.7227932447,0.2881955908307181
41940.0,1.7870520696383925,1.797823341228165,440710.33099466574,0.28705206963839247
42120.0,1.7859089467319125,1.8053584027392404,441035.2955071588,0.28590894673191247
42300.0,1.784765636168397,1.8137790779593361,441361.77574119146,0.284765636168397
42480.0,1.7836215437600194,1.8230993866423433,441689.93363078707,0.28362154376001936
42660.0,1.7824760674782865,1.833333474518344,442019.93365620036,0.28247606747828646
42840.0,1.7813285978817377,1.8444955531645792,442351.94285577,0.2813285978817377
43020.0,1.7801785185662382,1.8565998396284582,442686.1308269031,0.2801785185662382
43200.0,1.7790252066370165,1.86966049592884,443022.6697161703,0.27902520663701647
43380.0,1.777868033201568,1.8836915685614253,443361.73419851135,0.27786803320156794
43560.0,1.7767063638824816,1.8987069281337965,443703.50144557544,0.2767063638824816
43740.0,1.775539559349226,1.9147202092547577,444048.1510832413,0.275539559349226
43920.0,1.7743669758678973,1.9317447508017969,444395.8651383856,0.27436697586789727
44100.0,1.7731879658678875,1.949793536689223,444746.82797498966,0.2731879658678875
44280.0,1.772001878524406,1.968879137258134,445101.2262196961,0.27200187852440605
44460.0,1.7708080603557654,1.9890136514076988,445459.2486769495,0.27080806035576543
44640.0,1.769605855834305,2.0102086495854175,445821.08623387484,0.2696058558343051
44820.0,1.7683946080098052,2.032475117751867,446186.93175507017,0.2683946080098052
45000.0,1.7671736591442282,2.0558234024331985,446556.9799675081,0.2671736591442282
45180.0,1.7659423513565926,2.0802631569721406,446931.4273357631,0.2659423513565926
