t(s),Tsurface(蚓),Flux(W),E(J),f_liq
0.0,0.0,9.600000000000009,0.0,0.0
180.0,-0.1992881298857951,9.200782798958471,1656.1409038125248,0.0
360.0,-0.2807360441550927,9.079862563950194,3290.5161653235596,0.0
540.0,-0.3327846549392448,9.02675118720155,4915.331379019839,0.0
720.0,-0.37390257980732133,8.997348824530974,6534.854167435415,0.0
900.0,-0.4105500940418422,8.97608816324884,8150.550036820206,0.0
1080.0,-0.4452412877353941,8.956829863337287,9762.779412220918,0.0
1260.0,-0.47897672430778504,8.937080866186156,11371.453968134425,0.0
1440.0,-0.5121554779039925,8.915811222765898,12976.299988232287,0.0
1620.0,-0.5449351267805763,8.892585265459278,14576.965336014957,0.0
1800.0,-0.5773759755134149,8.867210586800807,16173.063241639102,0.0
1980.0,-0.6094991286874503,8.839595501136722,17764.190431843712,0.0
2160.0,-0.6413099193061612,8.80969106428429,19349.934823414886,0.0
2340.0,-0.6728073676328428,8.77746747704905,20929.878969283716,0.0
2520.0,-0.7039880021312385,8.742904480468614,22503.601775768067,0.0
2700.0,-0.734847404493912,8.705987443894793,24070.67951566913,0.0
2880.0,-0.7653808359295804,8.6667057674686,25630.686553813477,0.0
3060.0,-0.795583492577489,8.625052223772704,27183.195954092564,0.0
3240.0,-0.8254506111793534,8.581022679045459,28727.780036320746,0.0
3420.0,-0.854977514240947,8.534615966339675,30264.010910261888,0.0
3600.0,-0.8841596306810342,8.485833818116575,31791.46099752287,0.0
3780.0,-0.9129925064851285,8.434680820729563,33309.70354525419,0.0
3960.0,-0.9414718112165649,8.381164375607522,34818.31313286354,0.0
4140.0,-0.9695933427429881,8.325294661037717,36316.86617185033,0.0
4320.0,-0.9973530311276603,8.267084592144574,37804.94139843635,0.0
4500.0,-1.024746942067372,8.206549778164916,39282.120358506036,0.0
4680.0,-1.0517712800302201,8.143708476733323,40747.987884318034,0.0
4860.0,-1.0784223911546134,8.078581545141601,42202.13256244352,0.0
5040.0,-1.104696765934118,8.01119238863989,43644.1471923987,0.0
5220.0,-1.1305910416980773,7.941566905890595,45073.629235459004,0.0
5400.0,-1.1561020048922819,7.869733431704321,46490.181253165785,0.0
5580.0,-1.1812265931618213,7.795722677196327,47893.41133506112,0.0
5760.0,-1.2059618972376045,7.719567667505161,49282.933515212055,0.0
5940.0,-1.2303051626278911,7.641303677218055,50658.368177111304,0.0
6120.0,-1.2542537911163227,7.560968163647801,52019.342446567905,0.0
6300.0,-1.2778053420681292,7.478600698106947,53365.49057222716,0.0
6480.0,-1.3009575335464079,7.394242895324126,54696.4542933855,0.0
6660.0,-1.323708243240603,7.307938341147721,56011.883194792084,0.0
6840.0,-1.3460555092095225,7.219732518680334,57311.43504815455,0.0
7020.0,-1.3679975304414342,7.129672732986664,58594.776140092144,0.0
7200.0,-1.3895326672340138,7.037808034515921,59861.58158630501,0.0
7380.0,-1.4106594413970313,6.944189141377678,61111.53563175299,0.0
7560.0,-1.4313765362809094,6.848868360608329,62344.331936662486,0.0
7740.0,-1.451682796634388,6.751899508562837,63559.6738482038,0.0
7920.0,-1.4715772282946982,6.653337830563428,64757.27465770522,0.0
8100.0,-1.491058997713779,6.5532399199349385,65936.8578432935,0.0
8280.0,-1.5101274313241868,6.451663636552594,67098.15729787297,0.0
8460.0,-1.528782014748468,6.34866802502533,68240.91754237753,0.0
8640.0,-1.5470223918558286,6.244313232634311,69364.89392425171,0.0
8820.0,-1.5648483636700798,6.138660427142686,70469.85280113739,0.0
9000.0,-1.5822598871328504,6.031771714589189,71555.57170976343,0.0
9180.0,-1.5992570737261693,5.923710057174154,72621.83952005478,0.0
9360.0,-1.6158401879585427,5.814539191343368,73668.4565744966,0.0
9540.0,-1.6320096457187376,5.7043235461701824,74695.23481280723,0.0
9720.0,-1.6477660125014622,5.593128162133814,75701.99788199132,0.0
9900.0,-1.6631100015092264,5.481018610386342,76688.58123186087,0.0
10080.0,-1.678042471634643,5.368060912598115,77654.83219612853,0.0
10260.0,-1.6925644253274439,5.2543214614665095,78600.61005919249,0.0
10440.0,-1.7066770063505219,5.13986694196922,79525.78610874695,0.0
10620.0,-1.7203814974292706,5.024764253439633,80430.24367436608,0.0
10800.0,-1.733679317798522,4.909080432537109,81313.87815222277,0.0
10980.0,-1.7465720206513236,4.792882577182004,82176.59701611553,0.0
11160.0,-1.759061290493844,4.676237771520741,83018.31981498926,0.0
11340.0,-1.7711489404105933,4.559213011982789,83838.97815714616,0.0
11520.0,-1.7828369092441922,4.441875134487648,84638.51568135394,0.0
11700.0,-1.7941272586938326,4.324290742856226,85416.88801506806,0.0
11880.0,-1.8050221703365834,4.2065261384777095,86174.06271999405,0.0
12060.0,-1.8155239425756176,4.088647251279318,86910.01922522433,0.0
12240.0,-1.825634987519431,3.9707195720432185,87624.74874819211,0.0
12420.0,-1.835357827796063,3.852808086111587,88318.2542036922,0.0
12600.0,-1.8446950933062627,3.73497720851791,88990.55010122542,0.0
12780.0,-1.853649517919564,3.6172907205792346,89641.66243092969,0.0
12960.0,-1.8622239361171014,3.49981170798189,90271.62853836644,0.0
13140.0,-1.870421279585023,3.3826025003898614,90880.49698843661,0.0
13320.0,-1.8782445737622613,3.2657246126029116,91468.32741870514,0.0
13500.0,-1.8856969343464027,3.149238687288929,92035.19038241715,0.0
13680.0,-1.8927815637613268,3.033204439312698,92581.16718149344,0.0
13860.0,-1.8995017475902634,2.9176806016812287,93106.34968979606,0.0
14040.0,-1.9058608509778394,2.802724873123697,93610.84016695833,0.0
14220.0,-1.9118623150046683,2.6883938673222887,94094.75106307634,0.0
14400.0,-1.9175096530379847,2.5747430638083797,94558.20481456185,0.0
14580.0,-1.9228064470617632,2.461826760537058,95001.33363145852,0.0
14760.0,-1.9277563439897594,2.3496980281514315,95424.27927652578,0.0
14940.0,-1.932363051964808,2.2384086659469378,95827.19283639622,0.0
15120.0,-1.9366303366477755,2.1280091595445936,96210.23448511426,0.0
15300.0,-1.9405620174994025,2.0185486402811237,96573.57324036486,0.0
15480.0,-1.9441619640583583,1.9100748463230661,96917.38671270301,0.0
15660.0,-1.9474340922187163,1.8026340855109007,97241.86084809498,0.0
15840.0,-1.9503823605100732,1.6962711999387952,97547.18966408395,0.0
16020.0,-1.9530107663834881,1.5910295322748638,97833.57497989343,0.0
16200.0,-1.9553233425064085,1.4869508938263105,98101.22614078216,0.0
16380.0,-1.9573241530697114,1.38407553435356,98350.35973696581,0.0
16560.0,-1.9590172901100071,1.2824421136370328,98581.19931742047,0.0
16740.0,-1.9604068698502664,1.1820876748001954,98793.9750988845,0.0
16920.0,-1.961497029061904,1.0830476193922258,98988.92367037511,0.0
17100.0,-1.9622919214513581,0.9853556842336814,99166.28769353718,0.0
17280.0,-1.9627957140742764,0.8890439200284828,99326.3155991423,0.0
17460.0,-1.9630125837803194,0.7941426717457278,99469.26128005653,0.0
17640.0,-1.9629467136916798,0.7006805607747807,99595.38378099598,0.0
17820.0,-1.9626022897183415,0.608684468857416,99704.94698539031,0.0
18000.0,-1.9619834971131331,0.5181795238008721,99798.21929967447,0.0
18180.0,-1.9610945170696163,0.4291890869759952,99875.47333533016,0.0
18360.0,-1.9599395233658614,0.3417347426047425,99936.98558899901,0.0
18540.0,-1.9585226790571535,0.25583628884170573,99983.03612099052,0.0
18720.0,-1.9568481332206742,0.17151173065449732,100013.90823250833,0.0
18900.0,-1.954920017755199,0.08877727450805847,100029.88814191979,0.0
19080.0,-1.9527424442388797,0.0076473248582241415,100031.26466039427,0.0
19260.0,-1.9503195008481353,-0.07186551753996408,100018.32886723708,0.0
19440.0,-1.9476552493407149,-0.14975045550350932,99991.37378524645,0.0
19620.0,-1.944753722105999,-0.22599849346656417,99950.69405642248,0.0
19800.0,-1.9416189192855517,-0.3006024336934452,99896.58561835765,0.0
19980.0,-1.9382548059670135,-0.37355687065381743,99829.34538163997,0.0
20160.0,-1.9346653094543105,-0.44485818355407986,99749.27090860024,0.0
20340.0,-1.9308543166172967,-0.5145045270195341,99656.66009373673,0.0
20520.0,-1.9268256713237721,-0.5824958199217113,99551.81084615082,0.0
20700.0,-1.9225831719569422,-0.6488337323458789,99435.02077432857,0.0
20880.0,-1.9181305690212744,-0.7135216706939778,99306.58687360365,0.0
21060.0,-1.9134715628397512,-0.7765647609188635,99166.80521663825,0.0
21240.0,-1.9086098013454387,-0.8379698298863076,99015.97064725871,0.0
21420.0,-1.9035488779703125,-0.8977453848620633,98854.37647798355,0.0
21600.0,-1.8982923296342027,-0.955901591122087,98682.31419158156,0.0
21780.0,-1.892843634836714,-1.0124502476851371,98500.07314699824,0.0
21960.0,-1.8872062118549053,-1.0674047611680753,98307.940289988,0.0
22140.0,-1.8813834170494952,-1.1207801177655647,98106.1998687902,0.0
22320.0,-1.875378543282233,-1.1725928533572327,97895.13315518589,0.0
22500.0,-1.8691948184471041,-1.2228610217471167,97675.01817127141,0.0
22680.0,-1.8628354041178878,-1.27160416104188,97446.12942228388,0.0
22860.0,-1.85630339431453,-1.3188432581762366,97208.73763581215,0.0
23040.0,-1.8496018143907205,-1.3646007115961851,96963.10950772485,0.0
23220.0,-1.8427336200449471,-1.408900292112822,96709.50745514454,0.0
23400.0,-1.8357016964572028,-1.4517671019419927,96448.18937679498,0.0
23580.0,-1.8285088575533868,-1.4932275319475605,96179.40842104441,0.0
23760.0,-1.8211578453993695,-1.5333092171089047,95903.4127619648,0.0
23940.0,-1.8136513297264973,-1.5720409902360641,95620.44538372231,0.0
24120.0,-1.8059919075901962,-1.6094528339590508,95330.74387360968,0.0
24300.0,-1.7981821031632228,-1.645575831021144,95034.54022402587,0.0
24480.0,-1.7902243676648482,-1.680442112909096,94732.06064370224,0.0
24660.0,-1.7821210794272242,-1.7140848068570131,94423.52537846798,0.0
24840.0,-1.7738745440998744,-1.7465379812640127,94109.14854184046,0.0
25020.0,-1.7654869949931524,-1.777836589569671,93789.13795571792,0.0
25200.0,-1.75696059356127,-1.8080164126351437,93463.69500144359,0.0
25380.0,-1.7482974300252896,-1.8371139996817394,93133.01448150087,0.0
25560.0,-1.7394995241362858,-1.8651666078428975,92797.28449208915,0.0
25740.0,-1.730568826078613,-1.892212140389654,92456.68630681901,0.0
25920.0,-1.7215072175130297,-1.918289083693876,92111.39427175412,0.0
26100.0,-1.7123165127591329,-1.943436442997867,91761.5757120145,0.0
26280.0,-1.70299846011636,-1.9676936770633058,91407.3908501431,0.0
26460.0,-1.693554743322508,-1.9911006317767665,91048.99273642329,0.0
26640.0,-1.6839869831485008,-2.0136974727935137,90686.52719132045,0.0
26820.0,-1.6742967391278205,-2.0355246173055814,90320.13276020544,0.0
27000.0,-1.6644855114187675,-2.056622665024467,89949.94068050104,0.0
27180.0,-1.6545547427974423,-2.077032328473132,89576.07486137588,0.0
27360.0,-1.644505820778993,-2.096794362686113,89198.65187609238,0.0
27540.0,-1.6343400798644887,-2.1159494944208213,88817.78096709664,0.0
27720.0,-1.6240588039103552,-2.1345383509869786,88433.56406391898,0.0
27900.0,-1.6136632286171482,-2.152601388805244,88046.09581393404,0.0
28080.0,-1.6031545441340094,-2.170178821809635,87655.4636260083,0.0
28260.0,-1.592533897774981,-2.1873105498121124,87261.74772704212,0.0
28440.0,-1.581802396842946,-2.2040360869509446,86865.02123139096,0.0
28620.0,-1.570961111556752,-2.220394490347808,86465.35022312835,0.0
28800.0,-1.5600110780767305,-2.236424289101363,86062.7938510901,0.0
28980.0,-1.5489533016235564,-2.2521634137478586,85657.40443661548,0.0
29160.0,-1.5377887596851196,-2.2676491263216993,85249.22759387759,0.0
29340.0,-1.5265184053057828,-2.282917951150998,84838.30236267041,0.0
29520.0,-1.515143170452127,-2.2980056065249346,84424.66135349592,0.0
29700.0,-1.5036639694490652,-2.3129469373713043,84008.33090476909,0.0
29880.0,-1.4920817024798934,-2.3277758490835825,83589.33125193404,0.0
30060.0,-1.4803972591436567,-2.3425252426376795,83167.67670825926,0.0
30240.0,-1.468611522062939,-2.3572269511389017,82743.37585705426,0.0
30420.0,-1.456725370535005,-2.371911677939531,82316.43175502514,0.0
30600.0,-1.4447396842189995,-2.3866089364670064,81886.84214646109,0.0
30780.0,-1.4326553468517018,-2.401346991901733,81454.59968791877,0.0
30960.0,-1.4204732499842023,-2.41615280484228,81019.69218304717,0.0
31140.0,-1.4081942967316914,-2.4310519770938916,80582.10282717027,0.0
31320.0,-1.3958194055283857,-2.4460686997139525,80141.81046122176,0.0
31500.0,-1.38334951387957,-2.461225703445486,79698.78983460157,0.0
31680.0,-1.3707855821025476,-2.4765442116664222,79253.01187650161,0.0
31860.0,-1.3581285970482717,-2.4920438959788744,78804.44397522541,0.0
32040.0,-1.345379575795358,-2.5077428345585386,78353.05026500487,0.0
32220.0,-1.3325395693081432,-2.523657473379769,77898.79191979651,0.0
32400.0,-1.3196096660504113,-2.539802590426852,77441.62745351967,0.0
32580.0,-1.3065909955464714,-2.556191262996652,76981.51302618027,0.0
32760.0,-1.2934847318812657,-2.5728348381918797,76518.40275530574,0.0
32940.0,-1.2802920971312526,-2.5897429066978437,76052.24903210012,0.0
33120.0,-1.267014364717869,-2.6069232799289384,75583.00284171292,0.0
33300.0,-1.2536528626755385,-2.6243819706241323,75110.61408700058,0.0
33480.0,-1.2402089768262379,-2.6421231769628872,74635.03191514725,0.0
33660.0,-1.2266841538528412,-2.660149270265546,74156.20504649945,0.0
33840.0,-1.2130799042636178,-2.6784607863337833,73674.08210495938,0.0
34020.0,-1.1993978052404684,-2.6970564204784337,73188.61194927327,0.0
34200.0,-1.1856395033636646,-2.715933026273074,72699.74400454412,0.0
34380.0,-1.1718067172061655,-2.7350856180631444,72207.42859329275,0.0
34560.0,-1.1579012397907817,-2.7545073772507096,71711.61726538761,0.0
34740.0,-1.1439249409037888,-2.7741896623660374,71212.26312616172,0.0
34920.0,-1.1298797692588831,-2.7941220229273345,70709.3211620348,0.0
35100.0,-1.1157677545056883,-2.81429221708053,70202.7485629603,0.0
35280.0,-1.1015910090773804,-2.834686233001155,69692.5050410201,0.0
35460.0,-1.0873517298723505,-2.855288314030654,69178.55314449458,0.0
35640.0,-1.0730521997652067,-2.876080987509632,68660.85856674284,0.0
35820.0,-1.0586947889428144,-2.897045097260861,68139.39044923589,0.0
36000.0,-1.0442819560614534,-2.918159839665106,67614.12167809617,0.0
36180.0,-1.0298162492216276,-2.939402803263248,67085.02917350878,0.0
36360.0,-1.0153003067574762,-2.960750011808744,66552.09417138321,0.0
36540.0,-1.000736857838165,-2.982175970685237,66015.30249665988,0.0
36720.0,-0.9861287228790926,-3.003653716594925,65474.64482767279,0.0
36900.0,-0.9714788137612137,-3.025154870414591,64930.11695099816,0.0
37080.0,-0.956790133857218,-3.046649693107672,64381.72000623878,0.0
37260.0,-0.9420657778637966,-3.0681071445723482,63829.46072021576,0.0
37440.0,-0.9273089314396452,-3.0894949452979974,63273.35163006212,0.0
37620.0,-0.9125228706493907,-3.1107796406946226,62713.41129473709,0.0
37800.0,-0.8977109612140126,-3.1319266679528934,62149.66449450557,0.0
37980.0,-0.8828766575688609,-3.1529004252858153,61582.14241795412,0.0
38160.0,-0.8680235017307862,-3.1736643433965748,61010.88283614274,0.0
38340.0,-0.8531551219763687,-3.1941809590117556,60435.93026352062,0.0
38520.0,-0.8382752313336751,-3.2144119903135926,59857.33610526417,0.0
38700.0,-0.8233876258904042,-3.234318414100247,59275.15879072613,0.0
38880.0,-0.8084961829217105,-3.2538605444991906,58689.463892716274,0.0
39060.0,-0.7936048588414053,-3.2729981130546753,58100.32423236643,0.0
39240.0,-0.7787176869806522,-3.291690350007784,57507.81996936503,0.0
39420.0,-0.7638387751986291,-3.309896066584434,56912.03867737983,0.0
39600.0,-0.7489723033300328,-3.327573738105408,56313.07540452086,0.0
39780.0,-0.7341225204746432,-3.3446815877305975,55711.03271872935,0.0
39960.0,-0.7192937421345027,-3.361177670649301,55106.02073801248,0.0
40140.0,-0.7044903472045826,-3.377019958527973,54498.157145477446,0.0
40320.0,-0.6897167748231235,-3.392166424027358,53887.56718915252,0.0
40500.0,-0.6749775210880973,-3.406575125201776,53274.3836666162,0.0
40680.0,-0.6602771356465147,-3.4202042895950027,52658.7468944891,0.0
40860.0,-0.6456202181635426,-3.4330123978491125,52040.80466287626,0.0
41040.0,-0.6310114146785857,-3.4449582666453846,51420.71217488009,0.0
41220.0,-0.6164554138557281,-3.4560011307991987,50798.63197133624,0.0
41400.0,-0.6019569431360606,-3.4661007243350395,50174.73384095593,0.0
41580.0,-0.5875207647995966,-3.475217360371111,49549.19471608913,0.0
41760.0,-0.5731516719445974,-3.4833120096481576,48922.19855435246,0.0
41940.0,-0.5588544843922317,-3.4903463775419388,48293.93620639491,0.0
42120.0,-0.5446340445245889,-3.496282979403986,47664.60527010219,0.0
42300.0,-0.5304952130641103,-3.5010852140814985,47034.40993156752,0.0
42480.0,-0.5164428648025552,-3.5047174354728954,46403.5607931824,0.0
42660.0,-0.5024818842876237,-3.5071450219824776,45772.27468922555,0.0
42840.0,-0.4886171614753659,-3.508334443744018,45140.77448935163,0.0
43020.0,-0.4748535873564708,-3.508253327490578,44509.288890403324,0.0
43200.0,-0.4611960495644865,-3.5068705189547704,43878.05219699146,0.0
43380.0,-0.44764942797396434,-3.504156142691424,43247.30409130701,0.0
43560.0,-0.4342185902964201,-3.500081659222234,42617.289392647006,0.0
43740.0,-0.4209083876819185,-3.494619919409864,41988.25780715323,0.0
43920.0,-0.407723650333956,-3.487745215976758,41360.463668277414,0.0
44100.0,-0.3946691831451877,-3.4794333320923085,40734.1656685008,0.0
44280.0,-0.3817497613613779,-3.4696615869597878,40109.62658284804,0.0
44460.0,-0.3689701262808057,-3.4584088783427527,39487.112984746345,0.0
44640.0,-0.35633498099615607,-3.445655721978841,38866.89495479016,0.0
44820.0,-0.3438489861857403,-3.4313842878368668,38249.245782979524,0.0
45000.0,-0.3315167559606858,-3.4155784331812113,37634.4416650069,0.0
45180.0,-0.31934285377451,-3.398223732415545,37022.761393172106,0.0
45360.0,-0.3073317884012613,-3.3793075036857996,36414.48604250866,0.0
45540.0,-0.2954880099881868,-3.3588188322298866,35809.89865270728,0.0
45720.0,-0.28381590618862446,-3.336748590469486,35209.283906422774,0.0
45900.0,-0.2723197983805778,-3.313089454846587,34612.92780455039,0.0
46080.0,-0.26100393797615545,-3.287835919414464,34021.11733905579,0.0
46260.0,-0.24987250282681192,-3.260984306200175,33434.14016393976,0.0
46440.0,-0.23892959372904365,-3.232532772362091,32852.28426491458,0.0
46620.0,-0.22817923103492768,-3.202481314172846,32275.83762836347,0.0
46800.0,-0.21762535137161607,-3.1708317678640077,31705.08791014795,0.0
46980.0,-0.20727180447361795,-3.1375878073750236,31140.322104820447,0.0
47160.0,-0.19712235013143417,-3.102754939054906,30581.826215790563,0.0
47340.0,-0.18718065525982144,-3.066340493369883,30029.884926983985,0.0
47520.0,-0.1774502910886948,-3.0283536136762725,29484.781276522255,0.0
47700.0,-0.16793473047940186,-2.988805242121909,28946.79633294031,0.0
47880.0,-0.15863734536883034,-2.9477081027444223,28416.208874446314,0.0
48060.0,-0.149561404343539,-2.905076681838611,27893.295071715365,0.0
48240.0,-0.1407100703458438,-2.8609272056693187,27378.32817469489,0.0
48420.0,-0.13208639851352336,-2.8152776156093724,26871.5782038852,0.0
48600.0,-0.1236933341545597,-2.7681475407857943,26373.31164654376,0.0
48780.0,-0.11553371085807283,-2.719558268320281,25883.79115824611,0.0
48960.0,-0.10761024874237109,-2.6695327112523604,25403.275270220685,0.0
49140.0,-0.09992555284079407,-2.6180953742362476,24932.01810285816,0.0
49320.0,-0.09248211162579818,-2.5652723171042893,24470.26908577939,0.0
49500.0,-0.08528229567150962,-2.511091116391461,24018.272684828928,0.0
49680.0,-0.07832835645475236,-2.455580824917045,23576.26813634386,0.0
49860.0,-0.07162242529434928,-2.39877192952047,23144.489189030177,0.0
50040.0,-0.06516651242829345,-2.3406963070493325,22723.163853761296,0.0
50220.0,-0.05896250622819095,-2.2813871786981146,22312.514161595635,0.0
50400.0,-0.053012172550196156,-2.220879062796397,21912.755930292282,0.0
50580.0,-0.04731715422147548,-2.1592077261455107,21524.09853958609,0.0
50760.0,-0.04187897066107409,-2.096410134002418,21146.744715465655,0.0
50940.0,-0.03669901763389351,-2.032524398809046,20780.890323680025,0.0
51120.0,-0.03177856713633883,-1.9675897277650365,20426.72417268232,0.0
51300.0,-0.02711876741204848,-1.9016463693406194,20084.42782620101,0.0
51480.0,-0.022720643095983983,-1.834735558825799,19754.175425612364,0.0
51660.0,-0.01858509548502901,-1.7668994630104922,19436.133522270477,0.0
51840.0,-0.014712902933126321,-1.6981811240891682,19130.460919934427,0.0
