t(s),Tsurface(蚓),Flux(W),E(J),f_liq
0.0,0.0,19.200000000000017,0.0,0.0
180.0,-0.37378436453263175,17.556675225349327,3160.201540562879,0.0
360.0,-0.5108230294929639,17.03604068244387,6226.6888634027755,0.0
540.0,-0.5893198747549863,16.789929285097006,9248.876134720236,0.0
720.0,-0.646494668716338,16.64066581085452,12244.19598067405,0.0
900.0,-0.695176247790176,16.526528919617647,15218.971186205228,0.0
1080.0,-0.7402404742019403,16.423826767759635,18175.260004401964,0.0
1260.0,-0.7835760857045319,16.323270678165994,21113.44872647184,0.0
1440.0,-0.8259161276784095,16.22119611508391,24033.264027186946,0.0
1620.0,-0.8675430989288088,16.11615412790146,26934.17177020921,0.0
1800.0,-0.9085635196774554,16.007572731325602,29815.534861847817,0.0
1980.0,-0.9490152148960859,15.895229343260683,32676.67614363474,0.0
2160.0,-0.9889092789006343,15.779042627557466,35516.903816595084,0.0
2340.0,-1.028246494228426,15.658990316843067,38335.52207362684,0.0
2520.0,-1.0670237560366402,15.535076736209355,41131.83588614452,0.0
2700.0,-1.1052365866635558,15.407319927705567,43905.153473131526,0.0
2880.0,-1.1428801210314659,15.27574649927075,46654.78784300026,0.0
3060.0,-1.1799494940841264,15.140389514098434,49380.05795553798,0.0
3240.0,-1.2164399943428759,15.001287574177551,52080.28971888994,0.0
3420.0,-1.2523471258702434,14.858484370858909,54754.81690564454,0.0
3600.0,-1.2876666342254033,14.712028416384701,57402.98202059379,0.0
3780.0,-1.3223945181175867,14.561972844071658,60024.13713252669,0.0
3960.0,-1.3565270352329841,14.408375233238205,62617.64467450957,0.0
4140.0,-1.3900607055462952,14.25129744187538,65182.87821404714,0.0
4320.0,-1.4229923134135636,14.090805440638388,67719.22319336205,0.0
4500.0,-1.4553189089575294,13.926969145888808,70226.07763962203,0.0
4680.0,-1.487037808950897,13.759862251141392,72702.85284482749,0.0
4860.0,-1.5181465972839936,13.589562056903336,75148.97401507008,0.0
5040.0,-1.5486431250571966,13.41614929913569,77563.8808889145,0.0
5220.0,-1.5785255103207252,13.239707976652724,79947.028324712,0.0
5400.0,-1.60779213747765,13.060325177805018,82297.8868567169,0.0
5580.0,-1.6364416563634505,12.878090906792513,84615.94321993955,0.0
5760.0,-1.6644729810145769,12.693097909948209,86900.70084373023,0.0
5940.0,-1.691885288138212,12.505441502321817,89151.68031414815,0.0
6120.0,-1.7186780152953465,12.315219394878687,91368.41980522631,0.0
6300.0,-1.7448508588092924,12.122531522616873,93550.47547929734,0.0
6480.0,-1.7704037714117566,11.927479873889055,95697.42185659737,0.0
6660.0,-1.7953369596385682,11.730168321201612,97808.85215441366,0.0
6840.0,-1.8196508809870946,11.530702453748274,99884.37859608835,0.0
7020.0,-1.8433462408473187,11.329189411919522,101923.63269023386,0.0
7200.0,-1.8664239892184022,11.125737724014256,103926.26548055642,0.0
7380.0,-1.8888853172224627,10.920457145364246,105891.94776672199,0.0
7560.0,-1.9107316534271104,10.713458500066368,107820.37029673393,0.0
7740.0,-1.931964659988057,10.504853525503021,109711.24393132448,0.0
7920.0,-1.9525862286229858,10.294754719814886,111564.29978089116,0.0
8100.0,-1.9725984764275544,10.083275192476052,113379.28931553685,0.0
8280.0,-1.9920037415442065,9.87052851810652,115155.98444879602,0.0
8460.0,-2.010804578694168,9.65662859364274,116894.17759565171,0.0
8640.0,-2.029003754582761,9.441689498972519,118593.68170546676,0.0
8820.0,-2.046604243187827,9.225825361127553,120254.33027046973,0.0
9000.0,-2.063609220940791,9.009150222112842,121875.97731045003,0.0
9180.0,-2.080022061809574,8.791777910439741,123458.4973343292,0.0
9360.0,-2.0958463322922083,8.573821916417202,125001.78527928429,0.0
9540.0,-2.1110857863297388,8.355395271243465,126505.75642810811,0.0
9720.0,-2.1257443601466233,8.136610429929158,127970.34630549536,0.0
9900.0,-2.139826167026538,7.917579158072033,129395.51055394833,0.0
10080.0,-2.153335492031126,7.698412422493089,130781.2247899971,0.0
10260.0,-2.166276786668937,7.4792202857338514,132127.4844414292,0.0
10440.0,-2.1786546635214354,7.260111804405841,133434.30456622224,0.0
10620.0,-2.190473890832658,7.041194931373436,134701.71965386946,0.0
10800.0,-2.2017393870687347,6.82257642174486,135929.78340978353,0.0
10980.0,-2.212456215453202,6.604361742636535,137118.56852345812,0.0
11160.0,-2.222629578483688,6.386654986670595,138268.16642105882,0.0
11340.0,-2.2322648124352824,6.169558789157669,139378.6870031072,0.0
11520.0,-2.2413673818555373,5.953174248911965,140450.25836791133,0.0
11700.0,-2.2499428740558227,5.7376008526395506,141483.02652138646,0.0
11880.0,-2.2579969936034026,5.522936402836639,142477.15507389707,0.0
12060.0,-2.2655355568183735,5.309276949129459,143432.82492474036,0.0
12240.0,-2.272564486279316,5.09671672298436,144350.23393487756,0.0
12420.0,-2.2790898053412456,4.8853480757126775,145229.59658850584,0.0
12600.0,-2.28511763266923,4.675261419692763,146071.14364405055,0.0
12780.0,-2.290654176790783,4.466545172728505,146875.12177514168,0.0
12960.0,-2.2957057306699094,4.259285705462681,147641.79320212497,0.0
13140.0,-2.300278666305519,4.053567291761029,148371.43531464195,0.0
13320.0,-2.304379429356652,3.8494720619829295,149064.34028579888,0.0
13500.0,-2.3080145337968383,3.6470799590532788,149720.81467842846,0.0
13680.0,-2.31119055659972,3.446468697250183,150341.1790439335,0.0
13860.0,-2.3139141324578674,3.2477137236238294,150925.76751418578,0.0
14040.0,-2.316191948536632,3.0508881819615796,151474.92738693886,0.0
14220.0,-2.3180307392647057,2.856062879216136,151989.01870519776,0.0
14400.0,-2.3194372811629753,2.663306254314295,152468.41383097434,0.0
14580.0,-2.3204183877130573,2.472684349266193,152913.49701384225,0.0
14760.0,-2.320980904266962,2.2842607824958545,153324.6639546915,0.0
14940.0,-2.321131702999104,2.0980967243170703,153702.32136506858,0.0
15120.0,-2.320877677901877,1.914250874480762,154046.8865224751,0.0
15300.0,-2.320225739825978,1.7327794417223779,154358.78682198512,0.0
15480.0,-2.3191828115665563,1.5537361252417148,154638.45932452864,0.0
15660.0,-2.3177558229963187,1.3771720980499234,154886.35030217763,0.0
15840.0,-2.3159517062466137,1.2031359921225657,155102.9147807597,0.0
16020.0,-2.313777390937609,1.0316738853008718,155288.61608011383,0.0
16200.0,-2.311239799458584,0.8628292898873404,155443.92535229356,0.0
16380.0,-2.3083458422994796,0.6966431428857328,155569.321118013,0.0
16560.0,-2.3051024134348124,0.5331537978396278,155665.28880162415,0.0
16740.0,-2.301516385761121,0.3723970182280333,155732.3202649052,0.0
16920.0,-2.2975946065891883,0.21440597238088832,155770.91333993376,0.0
17100.0,-2.2933438931923047,0.059211229881741254,155781.57136131247,0.0
17280.0,-2.2887710284119764,-0.093159240570559,155764.80269800976,0.0
17460.0,-2.2838827563224946,-0.24268007186464072,155721.12028507414,0.0
17640.0,-2.278685777955939,-0.38932849776278033,155651.04115547685,0.0
17820.0,-2.2731867470892646,-0.5330843507846257,155555.08597233563,0.0
18000.0,-2.2673922660952353,-0.6739300586980272,155433.77856176998,0.0
18180.0,-2.2613088818590747,-0.811850639621513,155287.6454466381,0.0
18360.0,-2.254943081762895,-0.9468336957388603,155117.2153814051,0.0
18540.0,-2.2483012897399814,-1.078869405620799,154923.01888839336,0.0
18720.0,-2.2413898624013013,-1.2079505151450745,154705.58779566723,0.0
18900.0,-2.2342150852366056,-1.3340723270009127,154465.45477680708,0.0
19080.0,-2.226783168892762,-1.4572326887599791,154203.1528928303,0.0
19260.0,-2.2191002455320197,-1.5774319794912808,153919.21513652185,0.0
19440.0,-2.2111723652731468,-1.6946730948935644,153614.173979441,0.0
19620.0,-2.20300549271846,-1.808961430914371,153288.5609218764,0.0
19800.0,-2.1946055035700063,-1.9203048658214759,152942.90604602854,0.0
19980.0,-2.185978181338253,-2.028713740688227,152577.73757270465,0.0
20160.0,-2.177129214146856,-2.134200838251427,152193.5814218194,0.0
20340.0,-2.1680641916372014,-2.2367813600965016,151790.96077700204,0.0
20520.0,-2.1587886019765685,-2.33647290212218,151370.39565462005,0.0
20700.0,-2.149307828973997,-2.4332954282341523,150932.4024775379,0.0
20880.0,-2.139627149307948,-2.527271242214239,150477.49365393934,0.0
21060.0,-2.1297517298701463,-2.6184249577101393,150006.17716155152,0.0
21240.0,-2.119686625230007,-2.7067834662884995,149518.9561376196,0.0
21420.0,-2.10943677522426,-2.792375903492887,149016.32847499088,0.0
21600.0,-2.099007002676466,-2.875233612847036,148498.7864246784,0.0
21780.0,-2.0884020112512336,-2.9553901077430513,147966.81620528465,0.0
21960.0,-2.0776263834480546,-3.03288103115403,147420.89761967692,0.0
22140.0,-2.066684578739754,-3.107744113110714,146861.503679317,0.0
22320.0,-2.055580931860631,-3.18001912588236,146289.10023665815,0.0
22500.0,-2.044319651249393,-3.2497478368030497,145704.1456260336,0.0
22680.0,-2.0329048176520605,-3.316973958686311,145107.09031347005,0.0
22860.0,-2.021340382890027,-3.3817430977729455,144498.37655587093,0.0
23040.0,-2.0096301687984313,-3.4441026991594765,143878.4380700222,0.0
23220.0,-1.9977778663400396,-3.504101989657892,143247.6997118838,0.0
23400.0,-1.9857870348997342,-3.5617919180408024,142606.57716663645,0.0
23580.0,-1.9736611017646521,-3.6172250926304605,141955.47664996298,0.0
23760.0,-1.9614033617949764,-3.670455716194905,141294.79462104788,0.0
23940.0,-1.9490169772901926,-3.721539518119651,140624.91750778633,0.0
24120.0,-1.9365049780555372,-3.7705336838292953,139946.22144469706,0.0
24300.0,-1.923870261673181,-3.817496781440108,139259.07202403783,0.0
24480.0,-1.9111155939824858,-3.8624886856312455,138563.8240606242,0.0
24660.0,-1.8982436097734428,-3.9055704987302655,137860.82137085276,0.0
24840.0,-1.885256813697188,-3.946804469016553,137150.3965664298,0.0
25020.0,-1.8721575813971283,-3.9862539062549276,136432.8708633039,0.0
25200.0,-1.8589481608639848,-4.023983094481148,135708.55390629728,0.0
25380.0,-1.8456306740176394,-4.060057202070514,134977.7436099246,0.0
25560.0,-1.8322071185183342,-4.094542189131142,134240.726015881,0.0
25740.0,-1.8186793698093549,-4.127504712274179,133497.77516767164,0.0
25920.0,-1.8050491833928821,-4.159012026824327,132749.15300284326,0.0
26100.0,-1.7913181973402463,-4.189131886545567,131995.10926326507,0.0
26280.0,-1.7774879350372896,-4.217932440968935,131235.88142389065,0.0
26460.0,-1.7635598081650445,-4.245482130421365,130471.6946404148,0.0
26640.0,-1.749535119915348,-4.271849578867104,129702.76171621872,0.0
26820.0,-1.735415068440468,-4.297103484686081,128929.28308897522,0.0
27000.0,-1.721200750535159,-4.321312509526304,128151.44683726049,0.0
27180.0,-1.7068931655489747,-4.344545165380547,127369.42870749198,0.0
27360.0,-1.6924932195259725,-4.366869700050627,126583.39216148287,0.0
27540.0,-1.678001729568288,-4.3883539811755465,125793.48844487127,0.0
27720.0,-1.663419428419391,-4.409065379013131,124999.85667664891,0.0
27900.0,-1.6487469692620293,-4.429070648177074,124202.62395997703,0.0
28080.0,-1.6339849307252532,-4.448435808544498,123401.90551443903,0.0
28260.0,-1.6191338220940972,-4.467226025561188,122597.80482983802,0.0
28440.0,-1.6041940887147972,-4.4855054901836935,121790.41384160495,0.0
28620.0,-1.5891661175876415,-4.503337298709096,120979.81312783732,0.0
28800.0,-1.574050243138825,-4.520783332754067,120166.07212794159,0.0
28980.0,-1.5588467531619217,-4.537904139655544,119349.2493828036,0.0
29160.0,-1.5435558949188377,-4.554758813574656,118529.39279636016,0.0
29340.0,-1.5281778813893852,-4.571404877594823,117706.53991839309,0.0
29520.0,-1.5127128976578972,-4.587898167112766,116880.71824831278,0.0
29700.0,-1.4971611074245776,-4.60429271482854,116051.94555964365,0.0
29880.0,-1.48152265962864,-4.6206406376467095,115220.23024486724,0.0
30060.0,-1.465797695169576,-4.636992025805889,114385.57168022219,0.0
30240.0,-1.4499863537123112,-4.653394834557921,113547.96061000176,0.0
30420.0,-1.4340887805613765,-4.669894778720581,112707.37954983205,0.0
30600.0,-1.4181051335886656,-4.686535230429112,111863.80320835482,0.0
30780.0,-1.4020355901988633,-4.703357120412426,111017.19892668058,0.0
30960.0,-1.3858803543160865,-4.720398843117932,110167.52713491935,0.0
31140.0,-1.369639663374909,-4.737696166007045,109314.74182503809,0.0
31320.0,-1.3533137952985275,-4.7552821433388495,108458.7910392371,0.0
31500.0,-1.3369030754465123,-4.7731870347540095,107599.61737298137,0.0
31680.0,-1.3204078835143218,-4.791438228964166,106737.15849176783,0.0
31860.0,-1.303828660366542,-4.810060172843251,105871.34766065604,0.0
32040.0,-1.2871659147856622,-4.8290743062073,105002.11428553873,0.0
32220.0,-1.2704202301181386,-4.848499002557799,104129.38446507833,0.0
32400.0,-1.2535922707994576,-4.868349516050645,103253.08155218921,0.0
32580.0,-1.2366827887399816,-4.888637934938175,102373.12672390034,0.0
32760.0,-1.2196926295534651,-4.909373141716196,101489.43955839142,0.0
32940.0,-1.2026227386103452,-4.930560780190405,100601.93861795714,0.0
33120.0,-1.1854741668981517,-4.952203229658225,99710.54203661866,0.0
33300.0,-1.1682480766717394,-4.974299586382339,98815.16811106984,0.0
33480.0,-1.1509457468764188,-4.996845652511118,97915.73589361784,0.0
33660.0,-1.1335685783275806,-5.019833932579204,97012.16578575358,0.0
33840.0,-1.1161180986309025,-5.0432536376984745,96104.38013096785,0.0
34020.0,-1.0985959668278926,-5.067090697525587,95192.30380541325,0.0
34200.0,-1.0810039777521516,-5.0913277800676715,94275.86480500107,0.0
34380.0,-1.0633440660825122,-5.115944319362327,93354.99482751585,0.0
34560.0,-1.0456183100799894,-5.140916551041877,92429.62984832832,0.0
34740.0,-1.0278289349963567,-5.166217555765885,91499.71068829046,0.0
34920.0,-1.0099783161430567,-5.191817310478702,90565.18357240429,0.0
35100.0,-0.9920689816101179,-5.217682747422291,89626.00067786827,0.0
35280.0,-0.974103614625775,-5.243777820807345,88682.12067012295,0.0
35460.0,-0.9560850555485195,-5.270063581019304,87733.50922553948,0.0
35640.0,-0.9380163034844047,-5.296498256208725,86780.13953942191,0.0
35820.0,-0.9199005175235442,-5.323037341089545,85821.9928180258,0.0
36000.0,-0.9017410175908975,-5.349633692743191,84859.05875333202,0.0
36180.0,-0.8835412849075952,-5.376237633200905,83891.33597935586,0.0
36360.0,-0.8653049620602451,-5.402797058553012,82918.83250881633,0.0
36540.0,-0.8470358526768562,-5.429257554309736,81941.56614904058,0.0
36720.0,-0.8287379207092267,-5.455562516716451,80959.56489603162,0.0
36900.0,-0.8104152893228235,-5.4816532797045525,79972.86730568479,0.0
37080.0,-0.7920722393964056,-5.5074692471393085,78981.52284119971,0.0
37260.0,-0.7737132076348021,-5.532948030007485,77985.59219579837,0.0
37440.0,-0.755342784299448,-5.558025588170293,76985.14758992771,0.0
37620.0,-0.7369657105624038,-5.582636376291374,75980.27304219527,0.0
37800.0,-0.7185868754907394,-5.606713493536096,74971.06461335877,0.0
37980.0,-0.7002113126692088,-5.630188836625056,73957.63062276626,0.0
38160.0,-0.6818441964702359,-5.652993255815236,72940.09183671951,0.0
38340.0,-0.663490837981216,-5.675056713372531,71918.58162831246,0.0
38520.0,-0.6451566806001174,-5.696308444092697,70893.24610837577,0.0
38700.0,-0.6268472953112844,-5.71667711742263,69864.24422723969,0.0
38880.0,-0.6085683756542021,-5.736091000730362,68831.74784710823,0.0
39060.0,-0.5903257323987994,-5.7544781232708,67795.94178491949,0.0
39240.0,-0.572125287941614,-5.771766440394686,66757.02382564844,0.0
39420.0,-0.5539730704378374,-5.787883997550059,65715.20470608944,0.0
39600.0,-0.5358752076848741,-5.8027590936301845,64670.708069236,0.0
39780.0,-0.5178379207736253,-5.816320443226837,63623.770389455174,0.0
39960.0,-0.4998675175241853,-5.828497337355949,62574.640868731105,0.0
40140.0,-0.48197038572307693,-5.839219802231341,61523.58130432946,0.0
40320.0,-0.4641529861795171,-5.848418755673175,60470.86592830829,0.0
40500.0,-0.4464218456184654,-5.856026160749696,59416.78121937334,0.0
40680.0,-0.42878354942846597,-5.861975176264734,58361.62568764569,0.0
40860.0,-0.4112447342824235,-5.866200303718065,57305.70963297644,0.0
41040.0,-0.39381208064954715,-5.868637530382405,56249.354877507605,0.0
41220.0,-0.3764923052167246,-5.869224468157309,55192.89447323929,0.0
41400.0,-0.3592921532375247,-5.86790048787958,54136.67238542097,0.0
41580.0,-0.3422183908269466,-5.86460684878832,53081.043152639075,0.0
41760.0,-0.3252777972198505,-5.859286822863249,52026.37152452369,0.0
41940.0,-0.30847715701077844,-5.851885813775588,50973.03207804408,0.0
42120.0,-0.29182325239260287,-5.842351470212132,49921.4088134059,0.0
42300.0,-0.27532285541110113,-5.830633793355366,48871.89473060193,0.0
42480.0,-0.2589827202521629,-5.816685238323942,47824.891387703625,0.0
42660.0,-0.24280957557792257,-5.800460809401459,46780.80844201136,0.0
42840.0,-0.2268101169276199,-5.781918148902914,45740.06317520884,0.0
43020.0,-0.21099099919847975,-5.761017619551742,44703.08000368952,0.0
43200.0,-0.19535882922135572,-5.73772238026251,43670.289975242275,0.0
43380.0,-0.1799201584452897,-5.71199845524688,42642.13025329784,0.0
43560.0,-0.16468147574452674,-5.683814796382539,41619.04358994898,0.0
43740.0,-0.1496492003608818,-5.653143338806637,40601.477788963784,0.0
43920.0,-0.13482967499369233,-5.619959049716538,39589.885160014805,0.0
44100.0,-0.12022915904890509,-5.584239970381562,38584.72196534612,0.0
44280.0,-0.10585382205814549,-5.545967251389382,37586.447860096036,0.0
44460.0,-0.09170973727790717,-5.505125181170626,36595.525327485324,0.0
44640.0,-0.07780287547827806,-5.461701207863468,35612.4191100699,0.0
44820.0,-0.06413909892989468,-5.415685954598428,34637.59563824219,0.0
45000.0,-0.05072415559708513,-5.367073228300399,33671.522457148116,0.0
45180.0,-0.037563673544432276,-5.315860022121228,32714.667653166296,0.0
45360.0,-0.02466315556326989,-5.262046511631365,31767.49928107265,0.0
45540.0,-0.012027974023897887,-5.205636044913529,30830.484792988216,0.0
45720.0,0.0003366340413996449,-5.146635126714346,29904.090470179635,0.0
45900.0,0.012425571620155344,-5.085053396822541,28988.78085875158,0.0
46080.0,0.024233886162636793,-5.020903602853206,28085.018210238002,0.0
46260.0,0.035756773782857826,-4.954201567627859,27193.26192806499,0.0
46440.0,0.04698958321530383,-4.884966151349574,26313.968020822067,0.0
46620.0,0.05792781952562739,-4.813219208779819,25447.5885632417,0.0
46800.0,0.06856714757418161,-4.7389855416315445,24594.571165748024,0.0
46980.0,0.07890339523184435,-4.662292846398387,23755.358453396315,0.0
47160.0,0.08893255634815805,-4.583171657845595,22930.387554984107,0.0
47340.0,0.09865079347234113,-4.501655288391529,22120.089603073633,0.0
47520.0,0.10805444032825227,-4.4177797636126295,21324.88924562336,0.0
47700.0,0.11714000404486719,-4.331583754106086,20545.204169884262,0.0
47880.0,0.1259041671442993,-4.24310850394633,19781.444639173922,0.0
48060.0,0.1343437892898198,-4.152397755971525,19034.013043099047,0.0
48240.0,0.14245590879674955,-4.0594976741359865,18303.30346175457,0.0
48420.0,0.15023774390946457,-3.9644567631633136,17589.701244385175,0.0
48600.0,0.15768669384811668,-3.8673257857328998,16893.58260295325,0.0
48780.0,0.16480033962898744,-3.7681576774300725,16215.314221015838,0.0
48960.0,0.17157644466269467,-3.667007459686613,15555.252878272247,0.0
49140.0,0.1780129551347367,-3.563932150934651,14913.74509110401,0.0
49320.0,0.184108000173104,-3.458990676192326,14291.126769389391,0.0
49500.0,0.18985989180790297,-3.3522437752948138,13687.722889836325,0.0
49680.0,0.1952671247281272,-3.243753909978435,13103.847186040206,0.0
49860.0,0.20032837584087976,-3.1335851700201873,12539.801855436572,0.0
50040.0,0.20504250363848736,-3.0218031786281947,11995.877283283497,0.0
50220.0,0.20940854737907458,-2.908474997272428,11472.35178377446,0.0
50400.0,0.21342572608624968,-2.7936690301376843,10969.491358349676,0.0
50580.0,0.2170934373736437,-2.677454928373868,10487.54947124238,0.0
50760.0,0.22041125610008816,-2.559903494311187,10026.766842266366,0.0
50940.0,0.22337893286125327,-2.4410865858001256,9587.371256822344,0.0
51120.0,0.22599639232359436,-2.321077020828589,9169.577393073198,0.0
51300.0,0.22826373140643863,-2.1999484825605156,8773.586666212304,0.0
51480.0,0.23018121731804259,-2.0777754249326432,8399.58708972443,0.0
51660.0,0.23174928545140597,-1.9546329789379984,8047.7531535155895,0.0
51840.0,0.23296853714559276,-1.8305968597169011,7718.245718766548,0.0
