t(s),Tsurface(蚓),Flux(W),E(J),f_liq
0.0,2.0,14.39999999999998,0.0,0.5
180.0,1.9747508229708108,14.464004050044938,2603.520729008089,0.47475082297081084
360.0,1.9501484345883098,14.527389690904446,5218.450873370889,0.4501484345883098
540.0,1.9265123751644546,14.590873981020449,7844.8081899545705,0.4265123751644546
720.0,1.9039271892515428,14.654618706548298,10482.639557133265,0.4039271892515428
900.0,1.8823719030415769,14.718530058118542,13131.974967594602,0.38237190304157687
1080.0,1.8617894214815423,14.782422857320103,15792.811081912221,0.36178942148154225
1260.0,1.8421134054567418,14.84608524123085,18465.106425333775,0.34211340545674185
1440.0,1.823277794411844,14.909302180675304,21148.78081785533,0.3232777944118439
1620.0,1.8052199556926558,14.971863710071622,23843.716285668223,0.3052199556926558
1800.0,1.7878815637146601,15.03356763912786,26549.758460711237,0.2878815637146601
1980.0,1.7712086865479448,15.094220298328423,29266.718114410352,0.27120868654794483
2160.0,1.755151606442812,15.153636596339565,31994.372701751476,0.2551516064428121
2340.0,1.739664560759059,15.211639847114519,34732.46787423209,0.23966456075905906
2520.0,1.7247054686120826,15.268061529600047,37480.7189495601,0.22470546861208263
2700.0,1.7102356654724695,15.32274103712011,40238.81233624172,0.21023566547246952
2880.0,1.6962196526888207,15.375525435620276,43006.406914653366,0.1962196526888207
3060.0,1.6826248635359775,15.426269236452958,45783.1353772149,0.1826248635359775
3240.0,1.6694214455438592,15.474834184635558,48568.605530449306,0.16942144554385918
3420.0,1.6565820582641868,15.521089061899737,51362.40156159126,0.1565820582641868
3600.0,1.6440816854748876,15.564909503353155,54164.085272194825,0.14408168547488764
3780.0,1.6318974608172685,15.606177826475708,56973.19728096045,0.1318974608172685
3960.0,1.6200085059070108,15.644782871206631,59789.25819777764,0.12000850590701084
4140.0,1.6083957800204731,15.680619849956098,62611.76977076974,0.10839578002047312
4320.0,1.5970419405202279,15.713590206464623,65440.21600793337,0.09704194052022785
4500.0,1.5859312132438446,15.743601482519113,68274.06427478681,0.08593121324384456
4680.0,1.5750492721364082,15.77056719161902,71112.76636927824,0.07504927213640822
4860.0,1.5643831274598972,15.794406698760767,73955.75957505517,0.06438312745989716
5040.0,1.5539210219614132,15.815045105581952,76802.46769405992,0.05392102196141324
5220.0,1.5436523344275326,15.832413140171864,79652.30205929086,0.04365233442753258
5400.0,1.533567490094077,15.846447050915929,82504.66252845572,0.033567490094077
5580.0,1.5236578774194764,15.857088503798469,85358.93845913945,0.023657877419476447
5760.0,1.513915770765964,15.864284482640429,88214.50966601472,0.013915770765964064
5940.0,1.504334258566232,15.867987191796784,91070.74736053814,0.004334258566232041
6120.0,1.4843246256359355,15.83617648922301,93921.25912859828,0.0
6300.0,1.4651079609568016,15.802472170234072,96765.70411924041,0.0
6480.0,1.4466310678401335,15.7667322363099,99603.7159217762,0.0
6660.0,1.4288404430945814,15.728813154644946,102434.90228961229,0.0
6840.0,1.411686521122749,15.68858305133839,105258.8472388532,0.0
7020.0,1.3951244560385863,15.645924528284908,108075.11365394449,0.0
7200.0,1.3791140218486155,15.600734781793612,110883.24591466734,0.0
7380.0,1.3636192596271692,15.552924902038678,113682.77239703429,0.0
7560.0,1.3486080700392038,15.50241895287615,116473.207808552,0.0
7740.0,1.3340518161023884,15.449153033179337,119254.05535452429,0.0
7920.0,1.3199249558760637,15.393074384852119,122024.80874379766,0.0
8100.0,1.3062047092834848,15.334140565473527,124784.9540455829,0.0
8280.0,1.2928707581135206,15.272318687335993,127533.97140930337,0.0
8460.0,1.2799049766832102,15.207584719352829,130271.33665878688,0.0
8640.0,1.2672911903169666,15.13992284682772,132996.52277121588,0.0
8820.0,1.2550149588856658,15.069324883914422,135709.00125032046,0.0
9000.0,1.2430633828609199,14.99578973385622,138408.24340241458,0.0
9180.0,1.2314249295770618,14.919322892480396,141093.72152306105,0.0
9360.0,1.2200892776227228,14.839935990825303,143764.9100014096,0.0
9540.0,1.209047177495404,14.757646373158797,146421.28634857817,0.0
9720.0,1.1982903268442346,14.672476707002392,149062.3321558386,0.0
9900.0,1.1878112587987713,14.584454622096514,151687.533987816,0.0
10080.0,1.1801115920659178,14.501628102828292,154297.82704632508,0.0
10260.0,1.1721790239554237,14.414435660776217,156892.4254652648,0.0
10440.0,1.163998491064759,14.32288120489803,159470.54408214643,0.0
10620.0,1.1556098245788766,14.22714805954845,162031.43073286515,0.0
10800.0,1.1470609023638616,14.127449137056754,164574.37157753538,0.0
10980.0,1.1383971961929213,14.02399318556606,167098.69035093728,0.0
11160.0,1.1296594003266214,13.91697686909781,169603.7461873749,0.0
11340.0,1.1208832414311682,13.80658385783671,172088.9312817855,0.0
11520.0,1.1120998673991862,13.692985806494699,174553.66872695455,0.0
11700.0,1.1033363524691304,13.57634373629142,176997.41059948702,0.0
11880.0,1.0946161873860694,13.456809395304136,179419.63629064176,0.0
12060.0,1.0859597215174097,13.334526486651466,181819.85105823903,0.0
12240.0,1.0773845525735986,13.209631746686766,184197.58477264264,0.0
12420.0,1.068905867528491,13.082255881479789,186552.390831309,0.0
12600.0,1.0605367400989396,12.952524376084966,188883.8452190043,0.0
12780.0,1.0522883901239033,12.820558191510509,191191.5456934762,0.0
12960.0,1.0441704096964746,12.68647436314198,193475.11107884176,0.0
13140.0,1.0361909603361146,12.550386512893413,195734.18065116258,0.0
13320.0,1.028356944952426,12.412405285917433,197968.41360262773,0.0
13500.0,1.0206741578719853,12.27263872139948,200177.48857247963,0.0
13680.0,0.6769566500160348,11.078634290399917,202171.64274475162,0.0
13860.0,0.4509179082923692,10.255851130556598,204017.6959482518,0.0
14040.0,0.31004120017711,9.700396343528729,205763.76729008698,0.0
14220.0,0.22132453739465335,9.307787201395897,207439.16898633825,0.0
14400.0,0.1636380750455924,9.011359052447878,209061.21361577886,0.0
14580.0,0.12437154963204482,8.771458899452671,210640.07621768035,0.0
14760.0,0.09610540634631255,8.564848855835896,212181.7490117308,0.0
14940.0,0.07448564740154842,8.377962800226072,213689.7823157715,0.0
15120.0,0.056956862763957006,8.202895177406699,215166.3034477047,0.0
15300.0,0.04201751695154135,8.03504839980314,216612.61215966928,0.0
15480.0,0.028783525145972513,7.8717573157013705,218029.52847649553,0.0
15660.0,0.016732628264918305,7.711485488022662,219417.59586433962,0.0
15840.0,0.0055546576847381336,7.553355622831278,220777.19987644925,0.0
16020.0,-0.004936191870998012,7.396875206442456,222108.6374136089,0.0
16200.0,-0.01485277258815656,7.241776180575808,223412.15712611255,0.0
16380.0,-0.02426511895273285,7.087921241210761,224687.98294953047,0.0
16560.0,-0.03321811682659928,6.935249064352831,225936.32778111397,0.0
16740.0,-0.04174186567892777,6.7837422786982176,227157.40139127965,0.0
16920.0,-0.04985775682854015,6.633408732230792,228351.4149630812,0.0
17100.0,-0.057582039226093035,6.484270529374706,229518.58365836865,0.0
17280.0,-0.064927911270426,6.336357610988789,230659.12802834663,0.0
17460.0,-0.07190674762228047,6.189703990752922,231773.27474668215,0.0
17640.0,-0.07852881821830499,6.044345545235421,232861.25694482453,0.0
17820.0,-0.08480370908086413,5.900318712954349,233923.31431315633,0.0
18000.0,-0.09074056795001385,5.757659725457601,234959.6930637387,0.0
18180.0,-0.0963482469764232,5.616404149948772,235970.64581072947,0.0
18360.0,-0.10163538490846497,5.476586614491565,236956.43140133796,0.0
18540.0,-0.10661045370878364,5.3382406403397225,237917.31471659912,0.0
18720.0,-0.11128178425951392,5.201398537241382,238853.56645330257,0.0
18900.0,-0.11565757977817812,5.066091335881091,239765.46289376117,0.0
19080.0,-0.11974592201822376,4.932348742341307,240653.28566738262,0.0
19260.0,-0.12355477324216144,4.80019910573932,241517.3215064157,0.0
19440.0,-0.1270919757284152,4.669669393870881,242357.86199731246,0.0
19620.0,-0.13036524985120324,4.5407851738443625,243175.20332860443,0.0
19800.0,-0.13338219134798415,4.413570595952006,243969.6460358758,0.0
19980.0,-0.1361502681389725,4.288048379765203,244741.49474423355,0.0
20160.0,-0.13867681691604047,4.164239801876063,245491.05790857124,0.0
20340.0,-0.14096903963169766,4.042164684963609,246218.64755186468,0.0
20520.0,-0.14303399996789423,3.9218413880138225,246924.57900170717,0.0
20700.0,-0.14487861983446054,3.8032867976127225,247609.17062527747,0.0
20880.0,-0.14650967592946298,3.6865163202845674,248272.7435629287,0.0
21060.0,-0.14793379638352305,3.5715438758796916,248915.62146058705,0.0
21240.0,-0.14915745750422021,3.4583818920356766,249538.13020115346,0.0
21420.0,-0.1501869806333124,3.347041299748,250140.5976351081,0.0
21600.0,-0.1510285291276031,3.237531530093748,250723.35331052498,0.0
21780.0,-0.15168810547326358,3.1298605121566556,251286.7282027132,0.0
21960.0,-0.15217154854289305,3.024034672205488,251831.05444371016,0.0
22140.0,-0.1524845310043714,2.9200589341795458,252356.66505186248,0.0
22320.0,-0.15263255689048622,2.8179367215365176,252863.89366173904,0.0
22500.0,-0.15262095933832598,2.7176699605187955,253353.07425463243,0.0
22680.0,-0.15245489850747912,2.6192590848947783,253824.5408899135,0.0
22860.0,-0.15213935968612652,2.5227030422316705,254278.6274375152,0.0
23040.0,-0.1516791515941592,2.4279993017557033,254715.66731183123,0.0
23220.0,-0.15107890489246717,2.3351438638552686,255135.99320732517,0.0
23400.0,-0.15034307090753254,2.2441312712811645,255539.93683615577,0.0
23580.0,-0.14947592058040732,2.154954622096696,255927.82866813318,0.0
23760.0,-0.14848154364906402,2.067605584428566,256299.99767333033,0.0
23940.0,-0.14736384807297315,1.9820744130673482,256656.77106768245,0.0
24120.0,-0.14612655970857436,1.8983499679635338,256998.47406191588,0.0
24300.0,-0.14477322224407663,1.816419734662361,257325.42961415512,0.0
24480.0,-0.14330719740173986,1.7362698467169935,257637.95818656418,0.0
24660.0,-0.14173166541545085,1.657885110116106,257936.3775063851,0.0
24840.0,-0.14004962579101676,1.581249029757274,258221.0023317414,0.0
25020.0,-0.13826389835615208,1.5063438379934428,258492.14422258022,0.0
25200.0,-0.13637712460662957,1.4331505252741348,258750.11131712957,0.0
25380.0,-0.134391769354511,1.3616488728981917,258995.20811425126,0.0
25560.0,-0.1323101226837499,1.2918174878883986,259227.73526207116,0.0
25740.0,-0.13013430221778985,1.2236338399926447,259447.98935326983,0.0
25920.0,-0.12786625570305002,1.1570743008091975,259656.26272741548,0.0
26100.0,-0.12550776391140292,1.0921141850270184,259852.84328072035,0.0
26280.0,-0.12306044386391118,1.028727793764574,260038.01428359796,0.0
26460.0,-0.12052575237719804,0.9668884599829944,260212.0542063949,0.0
26640.0,-0.11790498993288163,0.9065685959415254,260375.23655366438,0.0
26820.0,-0.11519930486951603,0.8477397426550731,260527.8297073423,0.0
27000.0,-0.11240969789544328,0.7903726213051354,260670.0967791772,0.0
27180.0,-0.10953702691988783,0.7344371865469826,260802.29547275565,0.0
27360.0,-0.10658201219850781,0.6799026816469926,260924.67795545212,0.0
27540.0,-0.10354524178847353,0.6267376953754262,261037.4907406197,0.0
27720.0,-0.10042717730696542,0.5749102205708065,261140.97458032242,0.0
27900.0,-0.09722815998578851,0.5243877142832548,261235.3643688934,0.0
28080.0,-0.09394841701358171,0.47513715939521317,261320.88905758454,0.0
28260.0,-0.09058806815587588,0.4271251276091621,261397.7715805542,0.0
28440.0,-0.08714713264201926,0.3803178436832729,261466.22879241718,0.0
28620.0,-0.08362553630676033,0.3346812507875003,261526.47141755893,0.0
28800.0,-0.08002311897305343,0.2901810768443681,261578.70401139092,0.0
28980.0,-0.07633964206144711,0.2467829017108483,261623.12493369888,0.0
29160.0,-0.07257479641023039,0.20445222505017618,261659.9263342079,0.0
29340.0,-0.06872821028935672,0.16315453473535324,261689.29415046028,0.0
29520.0,-0.06479945759005355,0.12285537561952177,261711.4081180718,0.0
29700.0,-0.060788066170950575,0.0835204185022612,261726.4417934022,0.0
29880.0,-0.056693526340546946,0.04511552911547876,261734.562588643,0.0
30060.0,-0.0525152994548789,0.007606836947667651,261735.93181929356,0.0
30240.0,-0.0482528266083617,-0.029039196278762818,261730.70476396338,0.0
30420.0,-0.04390553739496876,-0.06485570866572528,261719.03073640354,0.0
30600.0,-0.03947285871617612,-0.09987537092457278,261701.0531696371,0.0
30780.0,-0.0349542236114627,-0.1341303200810414,261676.90971202252,0.0
30960.0,-0.03034908008660451,-0.16765209429397282,261646.7323350496,0.0
31140.0,-0.025656899914556358,-0.20047156898168314,261610.6474526329,0.0
31320.0,-0.02087718738337069,-0.23261889444899675,261568.77605163207,0.0
31500.0,-0.01600948796537023,-0.2641234352061003,261521.23383329497,0.0
31680.0,-0.011053396881671817,-0.29501371116760816,261468.1313652848,0.0
31860.0,-0.0060085675361554155,-0.3253173409164974,261409.5742439198,0.0
32040.0,-0.0008747197930870732,-0.35506098721294105,261345.66326622147,0.0
32220.0,0.004348351927157498,-0.3842703049224179,261276.49461133542,0.0
32400.0,0.00966077075946881,-0.41296989153103963,261202.16003085984,0.0
32580.0,0.01506256973719705,-0.44118324040855145,261122.7470475863,0.0
32760.0,0.020553684391287644,-0.4689326969712702,261038.33916213148,0.0
32940.0,0.02613394562876551,-0.4962394178880684,260949.01606691163,0.0
33120.0,0.03180307291314227,-0.5231233334626366,260854.85386688836,0.0
33300.0,0.03756066776838174,-0.5496031133146925,260755.9253064917,0.0
33480.0,0.04340620762700243,-0.5756961354713834,260652.30000210684,0.0
33660.0,0.04933904004174814,-0.6014184589683595,260544.04467949254,0.0
33840.0,0.055358377279003425,-0.6267848000473576,260431.223415484,0.0
34020.0,0.0614632913107933,-0.6518085120242655,260313.89788331965,0.0
34200.0,0.06765270922078331,-0.6765015688882289,260192.12760091978,0.0
34380.0,0.07392540903819822,-0.7008745526785987,260065.97018143762,0.0
34560.0,0.08028001601201436,-0.7249366446726122,259935.48158539654,0.0
34740.0,0.0867149993361602,-0.7486956204024589,259800.7163737241,0.0
34920.0,0.09322866933478755,-0.7721578485062065,259661.72796099298,0.0
35100.0,0.09981917511497246,-0.7953282934027562,259518.56886818047,0.0
35280.0,0.1064845026924638,-0.8182105217668129,259371.29097426246,0.0
35460.0,0.11322247359434709,-0.8408067127658614,259219.9457659646,0.0
35640.0,0.12003074394072422,-0.8631176720072739,259064.5845850033,0.0
35820.0,0.12690680400575047,-0.8851428491302908,258905.25887215984,0.0
36000.0,0.13384797825662056,-0.9068803589644054,258742.02040754625,0.0
36180.0,0.14085142586736468,-0.9283270061631849,258574.92154643688,0.0
36360.0,0.14791414170262365,-0.9494783132103879,258404.015450059,0.0
36540.0,0.15503295776491027,-0.970328551683721,258229.35631075592,0.0
36720.0,0.1622045450972612,-0.9908707766508663,258050.99957095875,0.0
36900.0,0.16942541613163234,-1.0110968640620728,257869.00213542758,0.0
37080.0,0.17669192747190685,-1.0309975509944533,257683.4225762486,0.0
37260.0,0.1840002830989754,-1.050562478594353,257494.3213301016,0.0
37440.0,0.19134653798401544,-1.0697802375565557,257301.76088734143,0.0
37620.0,0.19872660209485046,-1.0886384159721099,257105.80597246645,0.0
37800.0,0.2061362447791149,-1.1071236493706385,256906.52371557974,0.0
37980.0,0.21357109950689027,-1.125221672777809,256703.98381447972,0.0
38160.0,0.2210266689545155,-1.1429173746045476,256498.2586870509,0.0
38340.0,0.2284983304104171,-1.1601948521812357,256289.42361365826,0.0
38520.0,0.2359813414830447,-1.1770374687477645,256077.55686928367,0.0
38700.0,0.24347084609035408,-1.193427911708883,255862.73984517608,0.0
38880.0,0.2509618807097273,-1.2093482519636567,255645.05715982264,0.0
39060.0,0.2584493808667909,-1.2247800041181545,255424.59675908138,0.0
39240.0,0.26592818784125194,-1.2397041873915553,255201.4500053509,0.0
39420.0,0.2733930555676496,-1.2541013870278284,254975.7117556859,0.0
39600.0,0.2808386577087901,-1.2679518160277607,254747.4804288009,0.0
39780.0,0.28825959487960656,-1.2812353770196165,254516.85806093735,0.0
39960.0,0.295650401999251,-1.2939317240906962,254283.95035060102,0.0
40140.0,0.30300555574939303,-1.306020324406896,254048.86669220778,0.0
40320.0,0.31031948211693994,-1.3174805194527166,253811.7201987063,0.0
40500.0,0.3175865639997331,-1.3282915857299622,253572.62771327488,0.0
40680.0,0.3248011488541805,-1.3384327947598238,253331.7098102181,0.0
40860.0,0.3319575563642725,-1.34788347223986,253089.09078521494,0.0
41040.0,0.3390500861119797,-1.3566230562145496,252844.89863509632,0.0
41220.0,0.3460730252296422,-1.3646311541256384,252599.26502735371,0.0
41400.0,0.3530206560156352,-1.3718875986163668,252352.32525960277,0.0
41580.0,0.3598872634953104,-1.378372501971582,252104.2182092479,0.0
41760.0,0.36666714290998137,-1.3840663090841798,251855.08627361275,0.0
41940.0,0.3733546071175235,-1.388949848846396,251605.0753008204,0.0
42120.0,0.37994399388899397,-1.3930043838731254,251354.33451172325,0.0
42300.0,0.3864296730865397,-1.396211658472776,251103.01641319814,0.0
42480.0,0.392806053708745,-1.3985539447895876,250851.276703136,0.0
42660.0,0.3990675907904711,-1.4000140870498803,250599.27416746703,0.0
42840.0,0.4052087921451468,-1.4005755438527765,250347.17056957353,0.0
43020.0,0.4112242249383856,-1.4002224284542757,250095.13053245176,0.0
43200.0,0.4171085220827193,-1.3989395470014714,249843.3214139915,0.0
43380.0,0.42285638844414863,-1.396712434681485,249591.91317574884,0.0
43560.0,0.4284626068521144,-1.3935273897572926,249341.07824559254,0.0
43740.0,0.4339220439053808,-1.3893715054699582,249090.99137460795,0.0
43920.0,0.43922965556719845,-1.3842326997937422,248841.82948864507,0.0
44100.0,0.44438049254396933,-1.3780997430373985,248593.77153489835,0.0
44280.0,0.4493697054424597,-1.3709622832913966,248346.9983239059,0.0
44460.0,0.4541925497014303,-1.3628108697268702,248101.69236735505,0.0
44640.0,0.4588443902943103,-1.3536369737579184,247858.03771207863,0.0
44820.0,0.4633207062003086,-1.3434330080843357,247616.21977062346,0.0
45000.0,0.46761709464206264,-1.33219234363693,247376.42514876882,0.0
45180.0,0.4717292750886138,-1.3199093244522682,247138.84147036742,0.0
45360.0,0.47565309302314474,-1.306579280508192,246903.65719987595,0.0
45540.0,0.4793845234755328,-1.2921985385553272,246671.061462936,0.0
45720.0,0.48291967432034827,-1.2767644309836153,246441.24386535893,0.0
45900.0,0.4862547893414692,-1.2602753027661533,246214.39431086104,0.0
46080.0,0.48938625106499195,-1.2427305165256253,245990.70281788643,0.0
46260.0,0.4923105833625794,-1.2241304557712611,245770.3593358476,0.0
46440.0,0.4950244538278307,-1.2044765263566246,245553.5535611034,0.0
46620.0,0.49752467592864097,-1.1837711562104536,245340.47475298552,0.0
46800.0,0.499808210938887,-1.1620177933945954,245131.3115501745,0.0
46980.0,0.5018721696530996,-1.1392209025443658,244926.2517877165,0.0
47160.0,0.503713813888073,-1.115385959747914,244725.48231496188,0.0
47340.0,0.5053305577756173,-1.0905194459219019,244529.18881469592,0.0
47520.0,0.5067199688508964,-1.0646288387415723,244337.55562372244,0.0
47700.0,0.5078797689409743,-1.0377226031834366,244150.7655551494,0.0
47880.0,0.5088078348583704,-1.009810180739208,243968.99972261634,0.0
48060.0,0.5095021989045556,-0.9809019773592413,243792.43736669168,0.0
48240.0,0.5099610491884334,-0.9510093501837236,243621.25568365862,0.0
48420.0,0.5101827297649341,-0.9201445931192181,243455.62965689716,0.0
48600.0,0.5101657405989061,-0.8883209213176322,243295.73189106,0.0
48780.0,0.5099087373595366,-0.8555524546138347,243141.7324492295,0.0
48960.0,0.5094105310505331,-0.8218541999772901,242993.79869323358,0.0
49140.0,0.5086700874813123,-0.7872420330319139,242852.09512728784,0.0
49320.0,0.5076865265843983,-0.7517326786972692,242716.78324512232,0.0
49500.0,0.5064591215842179,-0.7153436910029135,242588.0213807418,0.0
49680.0,0.5049872980223967,-0.6780934321263176,242465.96456295907,0.0
49860.0,0.5032706326446125,-0.6400010507033653,242350.76437383247,0.0
50040.0,0.5013088521539681,-0.6010864594588661,242242.56881112987,0.0
50220.0,0.49910183183575185,-0.5613703122030553,242141.5221549333,0.0
