t(s),Tsurface(蚓),Flux(W),E(J),f_liq
0.0,2.0,14.39999999999998,0.0,0.5
180.0,1.9760443637511051,14.467135636677726,2604.084414601991,0.47604436375110515
360.0,1.9531137878215614,14.534630694341889,5220.3179395835305,0.4531137878215614
540.0,1.9310251344639249,14.601987856950288,7848.675753834583,0.4310251344639249
720.0,1.9096843421918968,14.668917302684848,10489.080868317855,0.40968434219189676
900.0,1.8890344540534962,14.735215890478436,13141.419728603974,0.38903445405349624
1080.0,1.8690330211569486,14.80071401545326,15805.54825138556,0.3690330211569486
1260.0,1.8496440440656585,14.865256653799573,18481.294449069483,0.3496440440656585
1440.0,1.8308351645110321,14.92869688138969,21168.459887719626,0.3308351645110321
1620.0,1.8125766326884363,14.990893640571965,23866.82074302258,0.3125766326884363
1800.0,1.794840870026476,15.05171093508756,26576.12871133834,0.29484087002647597
1980.0,1.777602235307728,15.111017508115776,29296.111862799182,0.2776022353077281
2160.0,1.7608368642141907,15.168686688005845,32026.475466640233,0.2608368642141907
2340.0,1.7445225389874375,15.224596296026352,34766.902799924974,0.24452253898743748
2520.0,1.7286385734816483,15.278628580268947,37517.05594437339,0.2286385734816483
2700.0,1.7131657083423584,15.33067016309779,40276.57657373099,0.21316570834235837
2880.0,1.6980860141914966,15.380611997316574,43045.086733247976,0.19808601419149663
3060.0,1.6833828017666561,15.42834932886178,45822.18961244309,0.1833828017666561
3240.0,1.6690405383421194,15.47378166475069,48607.470312098216,0.1690405383421194
3420.0,1.6550447699100068,15.516812745365515,51400.49660626401,0.15504476991000682
3600.0,1.6413820486732684,15.557350520308646,54200.819699919564,0.14138204867326842
3780.0,1.6280398654482808,15.5953071271553,57007.974982807515,0.12803986544828083
3960.0,1.6150065866100218,15.630598872494536,59821.48277985653,0.11500658661002183
4140.0,1.6022713952428878,15.66314621470165,62640.849098502826,0.10227139524288775
4320.0,1.5898242361871522,15.69287374793531,65465.56637313118,0.08982423618715218
4500.0,1.5776557646955955,15.719710186896195,68295.1142067725,0.07765576469559554
4680.0,1.5657572984372956,15.743588351923586,71128.96011011874,0.06575729843729561
4860.0,1.5541207726062827,15.764445154047312,73966.56023784725,0.054120772606282674
5040.0,1.542738697911737,15.782221579645247,76807.3601221834,0.04273869791173701
5220.0,1.531604121243918,15.796862674392113,79650.79540357398,0.03160412124391798
5400.0,1.5207105888261314,15.808317526215598,82496.29255829279,0.020710588826131415
5580.0,1.5100521116778154,15.81653924700489,85343.26962275367,0.01005211167781539
5760.0,1.4890855479906118,15.789929986722806,88185.45702036377,0.0
5940.0,1.4691286634042415,15.76207732774106,91022.63093935716,0.0
6120.0,1.450106115427562,15.732777843110531,93854.53095111705,0.0
6300.0,1.4319500054346725,15.701848297164377,96680.86364460664,0.0
6480.0,1.4145992367200648,15.669124405032072,99501.3060375124,0.0
6660.0,1.3979988387031068,15.634459405002865,102315.50873041293,0.0
6840.0,1.382099336326627,15.597722686966181,105123.09881406683,0.0
7020.0,1.3668561778698523,15.558798525204896,107923.68254860371,0.0
7200.0,1.352229220452167,15.517584921654143,110716.84783450146,0.0
7380.0,1.3381822688536034,15.473992553953007,113502.166494213,0.0
7560.0,1.3246826625489718,15.427943819565499,116279.19638173479,0.0
7740.0,1.3117009060081992,15.379371966918985,119047.4833357802,0.0
7920.0,1.2992103377177828,15.328220305012035,121806.56299068236,0.0
8100.0,1.2871868338238974,15.274441483659313,124555.96245774103,0.0
8280.0,1.2756085427238946,15.217996837276326,127295.20188845077,0.0
8460.0,1.2644556473226625,15.158855785795694,130023.795929894,0.0
8640.0,1.2537101520212337,15.09699528694258,132741.25508154367,0.0
8820.0,1.243355691819196,15.032399334668975,135447.08696178408,0.0
9000.0,1.2333773611931829,14.965058499067355,138140.7974916162,0.0
9180.0,1.2235187696565912,14.89419793899726,140821.7531206357,0.0
9360.0,1.2140636228513821,14.820759235568152,143489.48978303795,0.0
9540.0,1.205007167508921,14.74477246147459,146143.54882610336,0.0
9720.0,1.1963338485038042,14.666235246308991,148783.47117043898,0.0
9900.0,1.1880268828607203,14.585143143339769,151408.79693624013,0.0
10080.0,1.1800703375303552,14.50149626911182,154019.06626468027,0.0
10260.0,1.1724495571763534,14.415300699912287,156613.82039066448,0.0
10440.0,1.1651511673813524,14.326568505348856,159192.60272162728,0.0
10620.0,1.1581629726375722,14.235317433416238,161754.9598596422,0.0
10800.0,1.1514738360691328,14.141570524913607,164300.44255412664,0.0
10980.0,1.145073564018259,14.045355732347529,166828.6065859492,0.0
11160.0,1.1389528008931593,13.946705561884734,169339.01358708844,0.0
11340.0,1.1331029348117097,13.84565674126518,171831.23180051617,0.0
11520.0,1.127516013317061,13.74224991242361,174304.8367847524,0.0
11700.0,1.1221846681861254,13.636529346622751,176759.4120671445,0.0
11880.0,1.1171020483679102,13.52854267983658,179194.54974951508,0.0
12060.0,1.1122617601710127,13.418340666288193,181609.85106944694,0.0
12240.0,1.1076578139117044,13.305976948253626,184004.9269201326,0.0
12420.0,1.1032845763209835,13.191507840447338,186379.3983314131,0.0
12600.0,1.0991367280875022,13.074992127491615,188732.8969143616,0.0
12780.0,1.0952092259831947,12.956490873139916,191065.06527152678,0.0
12960.0,1.0914972690804996,12.836067240074003,193375.5573747401,0.0
13140.0,1.0879962686250384,12.713786319228419,195664.0389122012,0.0
13320.0,1.0847018211763069,12.589714967715537,197930.18760639,0.0
13500.0,1.0816096846720746,12.463921654530436,200173.6935042055,0.0
13680.0,1.0787157571103823,12.336476313308394,202394.259240601,0.0
13860.0,1.076016057576878,12.20745020149424,204591.60027686998,0.0
14040.0,1.073506709375213,12.076915765354814,206765.44511463385,0.0
14220.0,1.071183925044786,11.944946510334907,208915.53548649413,0.0
14400.0,1.0690439930736755,11.811616876314568,211041.62652423076,0.0
14580.0,1.0670832661354719,11.677002117379315,213143.48690535902,0.0
14760.0,1.0652981506972226,11.541178185760785,215220.89897879597,0.0
14940.0,1.063685097862109,11.404221619647474,217273.65887033253,0.0
15120.0,1.06224059532504,11.266209434601798,219301.57656856085,0.0
15300.0,1.0609611603322466,11.12721901835253,221304.4759918643,0.0
15480.0,1.0598433335474258,10.9873280287607,223282.19503704124,0.0
15660.0,1.0588836737371539,10.84661429478274,225234.58561010213,0.0
15840.0,1.0580787531973137,10.705155720277814,227161.51363975214,0.0
16020.0,1.057425153850313,10.563030190525906,229062.8590740468,0.0
16200.0,1.056919463949986,10.420315481342223,230938.5158606884,0.0
16380.0,1.056558275337416,10.277089170688313,232788.3919114123,0.0
16560.0,1.056338181196545,10.133428552695037,234612.4090508974,0.0
16740.0,1.0562557742634446,9.989410554025271,236410.50295062194,0.0
16920.0,1.0563076454475961,9.845111652514493,238182.62304807454,0.0
17100.0,1.0564903828274819,9.700607798038126,239928.73245172141,0.0
17280.0,1.0568005709863417,9.555974335562583,241648.8078321227,0.0
17460.0,1.057234790657093,9.411285930345283,243342.83929958486,0.0
17640.0,1.0577896186482378,9.266616495254938,245010.83026873076,0.0
17820.0,1.058461628025073,9.122039120190468,246652.79731036504,0.0
18000.0,1.059247388522779,8.97762600358143,248268.7699910097,0.0
18180.0,1.0601434671699546,8.833448385958166,249858.79070048218,0.0
18360.0,1.0611464291029582,8.689576485583865,251422.91446788728,0.0
18540.0,1.0622528385530245,8.546079436144533,252961.2087663933,0.0
18720.0,1.063459259989555,8.403025226496133,254473.7533071626,0.0
18900.0,1.0647622594042632,8.260480642471101,255960.6398228074,0.0
19080.0,1.06615840572203,8.118511210749244,257421.97184074225,0.0
19260.0,1.067644272325329,7.97718114479983,258857.86444680623,0.0
19440.0,1.0692164386800478,7.836553292903964,260268.44403952893,0.0
19620.0,1.0708714920513405,7.696689088268437,261653.84807541725,0.0
19800.0,1.0726060292989221,7.557648501242758,263014.22480564093,0.0
19980.0,1.074416658741884,7.419489993653347,264349.7330044985,0.0
20160.0,1.0763000020837339,7.28227047526963,265660.5416900471,0.0
20340.0,1.0782526963889096,7.1460452624172,266946.8298372822,0.0
20520.0,1.0802713961025339,7.010868038754922,268208.78608425806,0.0
20700.0,1.0823527751056203,6.876790818232464,269446.6084315399,0.0
20880.0,1.0844935287983635,6.7438639102455555,270660.5039353841,0.0
21060.0,1.0866903762045297,6.61213588700703,271850.68839504535,0.0
21240.0,1.0870149503458322,6.476952682912578,273016.5398779696,0.0
21420.0,1.0850622924440376,6.337507600228586,274157.29124601075,0.0
21600.0,1.0828705419189957,6.198889300605597,275273.09132011974,0.0
21780.0,1.080922731440135,6.062313728619527,276364.30779127125,0.0
21960.0,1.0793108352987293,5.928031746901624,277431.3535057135,0.0
22140.0,1.0780306747402983,5.7960593397090925,278474.6441868612,0.0
22320.0,1.0770564290442546,5.666360287782359,279494.589038662,0.0
22500.0,1.076359250117289,5.538891177569028,280491.5894506244,0.0
22680.0,0.9913198218748277,5.221177784604684,281431.4014518533,0.0
22860.0,0.8823606131505951,4.854684860102597,282305.2447266717,0.0
23040.0,0.7875871373343108,4.526010841376638,283119.9266781195,0.0
23220.0,0.7123736980008382,4.246174905155399,283884.2381610475,0.0
23400.0,0.6544497754377895,4.008997529712789,284605.8577163958,0.0
23580.0,0.6103405128435838,3.8058744413137755,285290.9151158323,0.0
23760.0,0.5769221695798411,3.629244836041604,285944.17918631976,0.0
23940.0,0.5516893141205377,3.4731230099243664,286569.3413281061,0.0
24120.0,0.5327035054367452,3.3329253734836386,287169.2678953332,0.0
24300.0,0.5184833695858854,3.205181707774056,287746.2006027325,0.0
24480.0,0.5079014616211285,3.087274289241591,288301.90997479594,0.0
24660.0,0.5001006314372491,2.9772298816945493,288837.81135350093,0.0
24840.0,0.49442917806111053,2.8735602796144026,289355.05220383155,0.0
25020.0,0.4903913419262687,2.7751417306041555,289854.5777153403,0.0
25200.0,0.4876097092355798,2.6811241929585536,290337.1800700728,0.0
25380.0,0.48579671064862473,2.590863152381715,290803.5354375015,0.0
25560.0,0.4847330216994963,2.5038684082325693,291254.23175098334,0.0
25740.0,0.484251190843118,2.4197656032221557,291689.78955956333,0.0
25920.0,0.4842232253615202,2.338267319321682,292110.6776770412,0.0
26100.0,0.48455117413628945,2.2591513556171163,292517.32492105226,0.0
26280.0,0.4851599803666866,2.1822443997409735,292910.12891300564,0.0
26460.0,0.4859920543229509,2.107409751392221,293289.46266825625,0.0
26640.0,0.48700314999745664,2.034538091403942,293655.67952470895,0.0
26820.0,0.4881592306186382,1.9635405408769204,294009.1168220668,0.0
27000.0,0.4894340844263305,1.8943434431216433,294350.0986418287,0.0
27180.0,0.49080750991465155,1.8268844423122614,294678.9378414449,0.0
27360.0,0.4922639334880838,1.7611095386587252,294995.9375584035,0.0
27540.0,0.49379135558664805,1.6969708793835037,295301.3923166925,0.0
27720.0,0.4953805464116192,1.6344251044611948,295595.5888354955,0.0
27900.0,0.49702443138274,1.5734321108965683,295878.8066154569,0.0
28080.0,0.49871762086032906,1.5139541329895088,296151.31835939497,0.0
28260.0,0.5004560495885498,1.4559550613444432,296413.39027043694,0.0
28440.0,0.5022366996039438,1.3993999424115258,296665.282260071,0.0
28620.0,0.5040573866448484,1.3442546146605188,296907.2480907099,0.0
28800.0,0.5059165948756722,1.2904854482579655,297139.53547139635,0.0
28980.0,0.507813348370889,1.2380591632247757,297362.3861207768,0.0
29160.0,0.5097471105639629,1.1869427071547864,297576.0358080647,0.0
29340.0,0.5117177049660027,1.1371031781718384,297780.71438013564,0.0
29520.0,0.5137252520567567,1.088507782266388,297976.64578094357,0.0
29700.0,0.515770118467171,1.0411238167625343,298164.04806796083,0.0
29880.0,0.5178528754995735,0.9949186736339015,298343.13342921494,0.0
30060.0,0.5199742647380431,0.9498598578702586,298514.1082036316,0.0
30240.0,0.5221351690403677,0.9059150172155828,298677.1729067304,0.0
30420.0,0.5243365876141991,0.8630519804424942,298832.52226321003,0.0
30600.0,0.5265796141940267,0.821238801964907,298980.34524756373,0.0
30780.0,0.5288654175755133,0.7804438110719992,299120.8251335567,0.0
30960.0,0.5311952239471625,0.7406356644299765,299254.13955315406,0.0
31140.0,0.53357030059961,0.7017834007732716,299380.46056529327,0.0
31320.0,0.5359919407002244,0.6638564969151937,299499.954734738,0.0
31500.0,0.5384614489029195,0.6268249243664444,299612.783221124,0.0
31680.0,0.5409801276260535,0.5906592059707317,299719.1018781987,0.0
31860.0,0.5435492638794973,0.5553304720594275,299819.0613631694,0.0
32040.0,0.5461701165588276,0.5208105156988505,299912.80725599517,0.0
32220.0,0.5488439041527928,0.4870718466599329,300000.48018839397,0.0
32400.0,0.5515717928316636,0.4540877437844718,300082.21598227514,0.0
32580.0,0.5543548849003755,0.42183230545835815,300158.14579725766,0.0
32760.0,0.557194207612642,0.39028049793198694,300228.3962868854,0.0
32940.0,0.560090702351378,0.35940820125364586,300293.0897631111,0.0
33120.0,0.5630452141874777,0.3291922526040465,300352.3443685798,0.0
33300.0,0.5660584818337963,0.29961048684034586,300406.27425621107,0.0
33480.0,0.5691311280144604,0.2706417740769169,300454.9897755449,0.0
33660.0,0.5722636502717237,0.2422660541479082,300498.5976652915,0.0
33840.0,0.5754564122336843,0.21446436781404593,300537.201251498,0.0
34020.0,0.5787096353665447,0.18721888459315295,300570.90065072477,0.0
34200.0,0.5820233912347965,0.1605129271107975,300599.7929776047,0.0
34380.0,0.5853975942919107,0.13433099188437483,300623.9725561439,0.0
34560.0,0.5888319952229116,0.10865876647088492,300643.53113410866,0.0
34740.0,0.5923261748586388,0.08348314292558795,300658.5580998353,0.0
34920.0,0.5958795386796634,0.058792227535753416,300669.14070079173,0.0
35100.0,0.5994913119257528,0.03457534681058971,300675.36426321766,0.0
35280.0,0.6031605353245201,0.010823049725351381,300677.31241216825,0.0
35460.0,0.6068860614504903,-0.01247289376576398,300675.0672912904,0.0
35640.0,0.6106665517232985,-0.035319497916860156,300668.70978166535,0.0
35820.0,0.6145004740511406,-0.05772257003058735,300658.31971905986,0.0
36000.0,0.6183861011229476,-0.07968672288863274,300643.9761089399,0.0
36180.0,0.6223215093500704,-0.10121539069451084,300625.7573386149,0.0
36360.0,0.6263045784555971,-0.12231084843627153,300603.7413858964,0.0
36540.0,0.6303329917067498,-0.14297423456282946,300578.0060236751,0.0
36720.0,0.6344042367831981,-0.1632055768546443,300548.62901984126,0.0
36900.0,0.6385156072715678,-0.18300382135720467,300515.68833199696,0.0
37080.0,0.6426642047739348,-0.20236686423452907,300479.2622964347,0.0
37260.0,0.6468469416157252,-0.22129158638949442,300439.42981088464,0.0
37440.0,0.6510605441361489,-0.2397738906885875,300396.2705105607,0.0
37620.0,0.6553015565421647,-0.2578087416203041,300349.86493706907,0.0
37800.0,0.6595663453049437,-0.27539020720937885,300300.2946997714,0.0
37980.0,0.663851104075951,-0.29251150300287543,300247.64262923086,0.0
38160.0,0.668151859098044,-0.3091650379393244,300191.99292240175,0.0
38340.0,0.672464475085454,-0.325342461908249,300133.4312792583,0.0
38520.0,0.6767846615451408,-0.34103471480476977,300072.0450305934,0.0
38700.0,0.6811079795108197,-0.3562320768824238,300007.9232567546,0.0
38880.0,0.6854298486599409,-0.3709242202068356,299941.1568971173,0.0
39060.0,0.6897455547830693,-0.3851002610134846,299871.8388501349,0.0
39240.0,0.6940502575744549,-0.3987488127743715,299800.06406383554,0.0
39420.0,0.6983389987121089,-0.4118580397810012,299725.92961667496,0.0
39600.0,0.7026067101954072,-0.42441571105452613,299649.53478868515,0.0
39780.0,0.7068482229081035,-0.4364092543983037,299570.98112289346,0.0
39960.0,0.7110582753746809,-0.4478258104132258,299490.3724770191,0.0
40140.0,0.7152315226781819,-0.4586522863020993,299407.8150654847,0.0
40320.0,0.7193625455079822,-0.4688754092959072,299323.41749181144,0.0
40500.0,0.7234458593065028,-0.4784817795419325,299237.2907714939,0.0
40680.0,0.7274759234844709,-0.4874579223014247,299149.54834547965,0.0
40860.0,0.731447150675104,-0.49579033931264,299060.30608440336,0.0
41040.0,0.735353915998473,-0.5034655591836079,298969.6822837503,0.0
41220.0,0.7391905663082778,-0.5104701866878001,298877.79765014653,0.0
41400.0,0.7429514293943513,-0.5167909508450218,298784.7752789944,0.0
41580.0,0.7466308231153617,-0.5224147516790049,298690.74062369217,0.0
41760.0,0.7502230644374218,-0.52732870555267,298595.8214566927,0.0
41940.0,0.7537224783556117,-0.5315201889913054,298500.14782267425,0.0
42120.0,0.7571234066767552,-0.5349768809134139,298403.85198410985,0.0
42300.0,0.7604202166431911,-0.5376868031982187,298307.06835953414,0.0
42480.0,0.7636073093786817,-0.5396383595280578,298209.9334548191,0.0
42660.0,0.7666791281390428,-0.5408203724529038,298112.58578777756,0.0
42840.0,0.7696301663515233,-0.5412221186330407,298015.1658064236,0.0
43020.0,0.7724549754283989,-0.5408333622244784,297917.81580122316,0.0
43200.0,0.7751481723416925,-0.5396443863799377,297820.67981167475,0.0
43380.0,0.7777044469473441,-0.5376460228461466,297723.90352756245,0.0
43560.0,0.7801185690485531,-0.5348296796457747,297627.6341852262,0.0
43740.0,0.7823853951893882,-0.5311873668395123,297532.02045919513,0.0
43920.0,0.7844998751710777,-0.526711720370608,297437.21234952845,0.0
44100.0,0.7864570582846968,-0.5213960240005704,297343.36106520833,0.0
44280.0,0.7882520992551963,-0.5152342293507096,297250.6189039252,0.0
44460.0,0.7898802638929219,-0.5082209740697355,297159.1391285926,0.0
44640.0,0.7913369344498965,-0.5003515981527619,297069.0758409251,0.0
44820.0,0.7926176146792294,-0.49162215844173823,296980.5838524056,0.0
45000.0,0.7937179345970298,-0.48202944134158904,296893.81855296413,0.0
45180.0,0.7946336549471648,-0.4715709737902014,296808.9357776819,0.0
45360.0,0.7953606713700926,-0.4602450325237834,296726.0916718276,0.0
45540.0,0.7958950182778445,-0.4480506516821896,296645.4425545248,0.0
45720.0,0.7962328724379878,-0.43498762880136027,296567.14478134055,0.0
45900.0,0.7963705562701184,-0.42105652924236536,296491.3546060769,0.0
46080.0,0.796304540859064,-0.40625868910832674,296418.2280420374,0.0
46260.0,0.7960314486895752,-0.39059621670208056,296347.92072303104,0.0
46440.0,0.7955480561077872,-0.3740719925786432,296280.5877643669,0.0
46620.0,0.7948512955152087,-0.35668966824740506,296216.3836240824,0.0
46800.0,0.793938257301391,-0.3384536635795844,296155.46196463803,0.0
46980.0,0.7928061915217908,-0.31936916297676343,296097.9755153022,0.0
47160.0,0.791452509327619,-0.299442110356462,296044.07593543804,0.0
47340.0,0.7898747841547338,-0.27867920301035654,295993.9136788962,0.0
47520.0,0.7880707526788202,-0.2570878843905703,295947.6378597059,0.0
47700.0,0.786038315544255,-0.23467633587860046,295905.3961192478,0.0
47880.0,0.7837755378741622,-0.2114534675909279,295867.3344950814,0.0
48060.0,0.7812806495692374,-0.1874289082741007,295833.59729159204,0.0
48240.0,0.778552045402947,-0.16261299434125323,295804.32695261063,0.0
48420.0,0.7755882849207022,-0.13701675810056405,295779.66393615253,0.0
48600.0,0.7723880921505751,-0.11065191522493056,295759.74659141205,0.0
48780.0,0.7689503551330551,-0.08353085151061188,295744.7110381402,0.0
48960.0,0.7652741252772506,-0.05566660897106343,295734.6910485254,0.0
49140.0,0.7613586165508257,-0.027072871310558688,295729.8179316895,0.0
49320.0,0.7572032045108148,0.002236051179468604,295730.2204209018,0.0
49500.0,0.7528074251823057,0.03224523726019455,295736.02456360863,0.0
49680.0,0.7481709737917972,0.06293917088185379,295747.35361436737,0.0
49860.0,0.7432937033618484,0.09430175777923896,295764.3279307676,0.0
50040.0,0.7381756231734263,0.12631634249046314,295787.0648724159,0.0
50220.0,0.7328168971021449,0.1589657257649002,295815.6787030536,0.0
50400.0,0.7272178418343593,0.19223218232823722,295850.2804958727,0.0
50580.0,0.7213789249688392,0.22609747897412869,295890.97804208804,0.0
50760.0,0.7153007630095116,0.26054289295395167,295937.8757628198,0.0
50940.0,0.7089841192545113,0.29554923063777755,295991.0746243346,0.0
51120.0,0.7024299015865332,0.33109684642146375,296050.67205669044,0.0
