t(s),Tsurface(蚓),Flux(W),E(J),f_liq
0.0,4.0,76.80000000000007,0.0,1.0
180.0,2.2080196336530835,60.11493683264642,10820.688629876357,1.0
360.0,1.4647196776856208,53.368145487174814,20426.95481756782,1.0
540.0,0.9952545096265555,49.189610334855544,29281.08467784182,1.0
720.0,0.6481905316327458,46.14337019916543,37586.891313691594,1.0
900.0,0.6497764777109118,46.5263689895678,45961.6377318138,1.0
1080.0,0.6501358507714291,46.891275140389396,54402.06725708389,1.0
1260.0,0.6479924091746205,47.22442334538715,62902.46345925357,1.0
1440.0,0.6431425541778043,47.52274589424416,71456.55772021752,1.0
1620.0,0.6357570614289927,47.7869928445799,80058.2164322419,1.0
1800.0,0.6261335478827584,48.01930556578152,88701.69143408258,1.0
1980.0,0.6145941607246391,48.22219367103786,97381.68629486939,1.0
2160.0,0.6014420133964155,48.39808350547356,106093.34132585464,1.0
2340.0,0.5869444850383707,48.54913188377296,114832.18506493377,1.0
2520.0,0.5713293110801708,48.67716925048053,123594.07553002027,1.0
2700.0,0.5547865963350946,48.78370519451997,132375.14246503386,1.0
2880.0,0.5374732612864107,48.86996160928935,141171.73555470596,1.0
3060.0,0.519518157261734,48.93691546534469,149980.380338468,1.0
3240.0,0.5010269993327304,48.9853421236249,158797.7419207205,1.0
3420.0,0.48208675093043446,49.01585497790505,167620.59581674341,0.9820867509304345
3600.0,0.462769346378211,49.02893981552991,176445.8049835388,0.962769346378211
3780.0,0.4431347621288247,49.02498362616558,185270.3020362486,0.9431347621288246
3960.0,0.42323350289844763,49.004298231084576,194091.07571784384,0.9232335028984476
4140.0,0.4031085877990657,48.96713936902752,202905.1608042688,0.9031085877990657
4320.0,0.3827971221568972,48.91372193946952,211709.6307533733,0.8827971221568972
4500.0,0.3623315329196319,48.84423207119194,220501.59252618783,0.8623315329196319
4680.0,0.3417405346999984,48.75883660891485,229278.1831157925,0.8417405346999984
4860.0,0.32104988227223136,48.657690522805794,238036.56740989754,0.8210498822722314
5040.0,0.30028295499088564,48.5409426597099,246773.93708864533,0.8002829549908856
5220.0,0.27946120962742366,48.40874017762222,255487.51032061732,0.7794612096274236
5400.0,0.2586045306125772,48.26123193852601,264174.532069552,0.7586045306125773
5580.0,0.23773150053652517,48.09857107935893,272832.2748638366,0.7377315005365251
5760.0,0.21685960882248606,47.92091693557832,281458.0399122407,0.7168596088224861
5940.0,0.19600541256166296,47.72843645524404,290049.15847418463,0.6960054125616629
6120.0,0.17518466039722377,47.52130521230542,298602.9934123996,0.6751846603972238
6300.0,0.15441238791203388,47.2997081045705,307116.9408712223,0.6544123879120338
6480.0,0.13370299107375286,47.06383980349517,315588.4320358514,0.6337029910737528
6660.0,0.11307028281016726,46.813905008496505,324014.9349373808,0.6130702828101673
6840.0,0.09252753663709275,46.550118547158746,332393.95627586934,0.5925275366370928
7020.0,0.07208752036884532,46.27270535382701,340723.0432395582,0.5720875203688454
7200.0,0.05176252225017291,45.981900352137856,348999.78530294297,0.5517625222501729
7380.0,0.03156437131384433,45.677948261611576,357221.81599003304,0.5315643713138444
7560.0,0.011504453354746598,45.36110334419237,365386.81459198764,0.5115044533547466
7740.0,-0.008406276407997751,45.031629103317506,373492.5078305848,0.49159372359200226
7920.0,-0.02815728315598122,44.6897979455125,381536.671460777,0.4718427168440188
8100.0,-0.04773844414898189,44.33589081249417,389517.13180702593,0.4522615558510181
8280.0,-0.06714004176732011,43.97019679018852,397431.7672292599,0.43285995823267986
8460.0,-0.0863527575448335,43.59301269983349,405278.5095152299,0.4136472424551665
8640.0,-0.10536766690566865,43.20464267537576,413055.3451967975,0.3946323330943313
8820.0,-0.124176234385572,42.80539773060631,420760.31678830663,0.375823765614428
9000.0,-0.13558751273373743,42.48675192014348,428407.9321339325,0.3644124872662626
9180.0,-0.14669607454827457,42.159191014863275,435996.58651660784,0.3533039254517254
9360.0,-0.15744714296874354,41.82360570250316,443524.8355430584,0.3425528570312565
9540.0,-0.1678122026272813,41.48056346735804,450991.33696718287,0.3321877973727187
9720.0,-0.17777664148871505,41.13046297041139,458394.8203018569,0.3222233585112849
9900.0,-0.18733429873786325,40.77360194671998,465734.0686522665,0.3126657012621368
10080.0,-0.1964845399582019,40.41021356187434,473007.9070934039,0.3035154600417981
10260.0,-0.2052305012002746,40.04048822152421,480215.19497327827,0.29476949879972536
10440.0,-0.213577948989108,39.66458773293145,487354.82076520595,0.286422051010892
10620.0,-0.22153449468279768,39.28265507312684,494425.69867836876,0.2784655053172023
10800.0,-0.22910902848932668,38.894821433306106,501426.76653636387,0.2708909715106733
10980.0,-0.2363112992133627,38.501211451519076,508356.9845976373,0.2636887007866373
11160.0,-0.24315159650179705,38.1019471642185,515215.33508719667,0.2568484034982029
11340.0,-0.24964050855146153,37.69715100703157,522000.82226846233,0.2503594914485385
11520.0,-0.2557887372073352,37.28694808509718,528712.4729237799,0.2442112627926648
11700.0,-0.26160695763816744,36.87146786934386,535349.3371402618,0.23839304236183256
11880.0,-0.2671057130706122,36.450845435347254,541910.4893186243,0.2328942869293878
12060.0,-0.2722953372687618,36.025222334978395,548395.0293389204,0.22770466273123818
12240.0,-0.2771858990136941,35.59474717232501,554802.0838299389,0.22281410098630589
12420.0,-0.28178716400599546,35.15957594141245,561130.8074993931,0.21821283599400454
12600.0,-0.2861085705153182,34.719872172448184,567380.3844904338,0.21389142948468182
12780.0,-0.2901455427482703,34.275980138166524,573550.0609153038,0.2098544572517297
12960.0,-0.29390330010368304,33.82812193132273,579639.1228629418,0.20609669989631696
13140.0,-0.2973970839449434,33.376395474271355,585646.8740483107,0.2026029160550566
13320.0,-0.3006444508957727,32.92087273568267,591572.6311407336,0.19935554910422731
13500.0,-0.30366126346970007,32.46165039285444,597415.7282114474,0.19633873653029993
13680.0,-0.3072403491812402,31.98909813557091,603173.7658758501,0.1927596508187598
13860.0,-0.31052157819072657,31.514340410636514,608846.3471497647,0.18947842180927343
14040.0,-0.31351531449112063,31.037545480437327,614433.1053362434,0.18648468550887937
14220.0,-0.3162305493636809,30.558899623130117,619933.7072684069,0.1837694506363191
14400.0,-0.31867539809956374,30.078600562538153,625347.8553696637,0.18132460190043626
14580.0,-0.3208572948409061,29.59685470646519,630675.2892168274,0.17914270515909392
14760.0,-0.32278311880850374,29.113875254505693,635915.7867626384,0.17721688119149626
14940.0,-0.3244592948555844,28.629880636092107,641069.165277135,0.1755407051444156
15120.0,-0.32589187758719523,28.14509316315456,646135.2820465028,0.17410812241280477
15300.0,-0.32708662218408485,27.659737858075154,651114.0348609564,0.17291337781591515
15480.0,-0.3280490438442983,27.17404143279619,656005.3623188597,0.17195095615570172
15660.0,-0.3287873849677384,26.688196291308934,660809.2376512953,0.1712126150322616
15840.0,-0.32930511575500027,26.20245088104834,665525.678809884,0.17069488424499973
16020.0,-0.3296057367644886,25.71705090066763,670154.7479720042,0.17039426323551138
16200.0,-0.32969329991751334,25.23223286996721,674696.5498885984,0.17030670008248666
16380.0,-0.32957224494580983,24.748225972367933,679151.2305636246,0.17042775505419017
16560.0,-0.32924728172822737,24.26525331560193,683518.976160433,0.17075271827177263
16740.0,-0.3287233035666047,23.783532799893095,687800.0120644137,0.17127669643339533
16920.0,-0.32800532295065404,23.303277701889996,691994.6020507539,0.17199467704934596
17100.0,-0.3270984240914963,22.824697048096766,696103.0475194113,0.1729015759085037
17280.0,-0.3259341127600736,22.348841002478522,700125.8388998575,0.1740658872399264
17460.0,-0.324610562105836,21.87483369079132,704063.3089642,0.175389437894164
17640.0,-0.32313048059122085,21.402903459416503,707915.8315868949,0.17686951940877915
17820.0,-0.3214967817323605,20.93327162399946,711683.8204792148,0.17850321826763949
18000.0,-0.3197125586071134,20.466152606470885,715367.7279483796,0.1802874413928866
18180.0,-0.31778106131943173,20.00175403914958,718968.0436754265,0.18221893868056827
18360.0,-0.31570567669004546,19.540276844878104,722485.2935075046,0.18429432330995454
18540.0,-0.3134899098519277,19.08191529735659,725920.0382610288,0.1865100901480723
18720.0,-0.31113736753588583,18.62685706457863,729272.8725326529,0.18886263246411417
18900.0,-0.3086517428704543,18.17528323781107,732544.4235154589,0.19134825712954567
19080.0,-0.3060368015411753,17.727368348301273,735735.3498181532,0.1939631984588247
19260.0,-0.30330034380781895,17.283237971537513,738846.3326530299,0.19669965619218105
19440.0,-0.3004409864196034,16.843110144010787,741878.0924789519,0.19955901358039663
19620.0,-0.29746282265524937,16.40713751729338,744831.3772320647,0.20253717734475063
19800.0,-0.2943699531170479,15.975466434747382,747706.9611903193,0.2056300468829521
19980.0,-0.2911664822841892,15.548236850419668,750505.6438233948,0.20883351771581082
20160.0,-0.2878565126085116,15.125582280001828,753228.2486337951,0.21214348739148842
20340.0,-0.28444413835243226,14.707629760102055,755875.6219906134,0.21555586164756774
20520.0,-0.28093343966341067,14.294499810728343,758448.6319565445,0.21906656033658933
20700.0,-0.27732847698701185,13.886306400140882,760948.1671085699,0.22267152301298815
20880.0,-0.27363328582174545,13.483156912293728,763375.1353527828,0.22636671417825455
21060.0,-0.2698518717952029,13.085152117327679,765730.4627339018,0.23014812820479708
21240.0,-0.2659882060369803,12.69238614561046,768015.0922401117,0.2340117939630197
21420.0,-0.2620462208248484,12.304946465798864,770229.9826039554,0.2379537791751516
21600.0,-0.25802980548277205,11.922913867365404,772376.1071000812,0.24197019451722795
21780.0,-0.2539428025116605,11.546362447997563,774454.4523407207,0.24605719748833949
21960.0,-0.24978900393590936,11.17535960624578,776466.0170698449,0.25021099606409064
22140.0,-0.2455721478508044,10.809966039764378,778411.8109570025,0.2544278521491956
22320.0,-0.2412959151576902,10.450235749461962,780292.8533919057,0.2587040848423098
22500.0,-0.23696392647548079,10.096216049849545,782110.1722808785,0.2630360735245192
22680.0,-0.2325797392186005,9.747947585850193,783864.8028463316,0.26742026078139947
22860.0,-0.228146844832815,9.405464356309016,785557.7864304673,0.271853155167185
23040.0,-0.2236686661816484,9.068793744419834,787190.1693044628,0.2763313338183516
23220.0,-0.21914855507719705,8.737956555263407,788763.0014844103,0.28085144492280295
23400.0,-0.21458978995014624,8.412967060631034,790277.3355553239,0.2854102100498538
23580.0,-0.20999557365469493,8.093833051287238,791734.2255045556,0.2900044263453051
23760.0,-0.20536903140488574,7.780555896806681,793134.7255659808,0.2946309685951143
23940.0,-0.2007132088395503,7.47313061310102,794479.889076339,0.2992867911604497
24120.0,-0.19603107021370325,7.171545937733808,795770.767345131,0.30396892978629675
24300.0,-0.19132549671477103,6.875784413103074,797008.4085394896,0.30867450328522894
24480.0,-0.18659928490252245,6.5858224775542595,798193.8565854494,0.3134007150974776
24660.0,-0.1818551452719861,6.301630564468248,799328.1500870537,0.3181448547280139
24840.0,-0.17709570093900007,6.0231732093518975,800412.321264737,0.32290429906099993
25020.0,-0.172323486448343,5.7504091649415985,801447.3949144265,0.327676513551657
25200.0,-0.1675409467046528,5.483291524312359,802434.3873888027,0.3324590532953472
25380.0,-0.16275043602654835,5.221767851968069,803374.305602157,0.3372495639734516
25560.0,-0.15795421732453607,4.965780322870822,804268.1460602737,0.3420457826754639
25740.0,-0.15315446140341454,4.715265869349351,805116.8939167566,0.34684553859658546
25920.0,-0.14835324638997807,4.470156335809098,805921.5220572023,0.35164675361002196
26100.0,-0.14355255728688346,4.230378641148022,806682.990212609,0.35644744271311657
26280.0,-0.13875428565356854,3.995854948764443,807402.2441033865,0.3612457143464315
26460.0,-0.13396022941511188,3.7665028440243637,808080.2146153109,0.3660397705848881
26640.0,-0.12917209279989447,3.542235519037382,808717.8170087376,0.3708279072001055
26820.0,-0.12439148640687243,3.3229619645715758,809315.9501623604,0.3756085135931276
27000.0,-0.1196199274031929,3.108587168918443,809875.4958527657,0.3803800725968071
27180.0,-0.1148588398527895,2.8990123235003913,810397.3180709959,0.3851411601472105
27360.0,-0.11010955517647676,2.694135034993792,810882.2623772947,0.38989044482352325
27540.0,-0.10537331274392517,2.4938495437215784,811331.1552951646,0.39462668725607486
27720.0,-0.1006512605977485,2.298046948049988,811744.8037458136,0.3993487394022515
27900.0,-0.09594445630976478,2.1066154345050285,812123.9945240244,0.4040555436902352
28080.0,-0.09125386796930804,1.9194405133050971,812469.4938164194,0.408746132030692
28260.0,-0.08658037530327217,1.736405258987134,812782.0467630371,0.4134196246967278
28440.0,-0.0819247709273571,1.5573905557850407,813062.3770630785,0.4180752290726429
28620.0,-0.07728776172776655,1.3822753474005882,813311.1866256106,0.4227122382722335
28800.0,-0.07266997037237487,1.2109368907888192,813529.1552659526,0.4273300296276251
28980.0,-0.06807193695013898,1.0432510135623163,813716.9404483938,0.43192806304986103
29160.0,-0.06349412073728194,0.8790923746013775,813875.177075822,0.43650587926271806
29340.0,-0.058936902088517255,0.7183347274403148,814004.4773267612,0.44106309791148274
29520.0,-0.054400584451320344,0.5608511859843541,814105.4305402384,0.44559941554867966
29700.0,-0.04988539650098374,0.406514492095722,814178.6031488156,0.4501146034990163
29880.0,-0.04539149439392052,0.25519728457347596,814224.5386600388,0.45460850560607946
30060.0,-0.040918964136403314,0.10677236903743546,814243.7576864656,0.45908103586359666
30240.0,-0.036467824065647726,-0.038887011785966916,814236.7580243441,0.46353217593435225
30420.0,-0.03203802743986941,-0.181906907889768,814204.014780924,0.4679619725601306
30600.0,-0.027629465133663426,-0.3224123924493864,814145.9805502831,0.47237053486633657
30780.0,-0.023241968434775665,-0.46052729345623356,814063.0856374609,0.47675803156522434
30960.0,-0.018875311938058626,-0.5963739270646539,813955.7383305893,0.48112468806194136
31140.0,-0.014529216532130108,-0.730072833201323,813824.325220613,0.48547078346786987
31320.0,-0.010203352473982694,-0.8617425139920681,813669.2115680944,0.4897966475260173
31500.0,-0.005897342546527601,-0.9914991755650367,813490.7417164927,0.49410265745347237
31680.0,-0.0016107652937975723,-1.1194564737917592,813289.2395512102,0.49838923470620244
31860.0,0.0026568416717173394,-1.2457252645287116,813065.009003595,0.5026568416717173
32040.0,0.00690597829537038,-1.370413358921428,812818.3345989891,0.5069059782953704
32220.0,0.011137178646297057,-1.4936252843308213,812549.4820478095,0.511137178646297
32400.0,0.01535100742921745,-1.6154620514377689,812258.6988785507,0.5153510074292175
32580.0,0.019548056448537438,-1.7360209280759693,811946.215111497,0.5195480564485374
32760.0,0.023728941031383295,-1.8553952203360813,811612.2439718365,0.5237289410313833
32940.0,0.027894296416388284,-1.9736740614747152,811256.9826407711,0.5278942964163883
33120.0,0.032044774115220574,-2.0909422091509273,810880.6130431239,0.5320447741152206
33300.0,0.03618103825399626,-2.2072798515004286,810483.3026698538,0.5361810382539962
33480.0,0.04030376190185992,-2.3227624225427324,810065.205433796,0.5403037619018599
33660.0,0.044413623394135994,-2.437460427400718,809626.4625568639,0.544413623394136
33840.0,0.048511302657558084,-2.5514392777936665,809167.2034868611,0.5485113026575581
34020.0,0.0525974775451674,-2.664759138245339,808687.5468419769,0.5525974775451674
34200.0,0.05667282018853735,-2.7774747834271647,808187.6013809601,0.5566728201885374
34380.0,0.06073799337502607,-2.8896354670336217,807667.466996894,0.5607379933750261
34560.0,0.06479364695778424,-3.0012848025621657,807127.2357324328,0.5647936469577842
34740.0,0.0688404143062493,-3.1124606563441755,806566.9928142908,0.5688404143062493
34920.0,0.07287890880483944,-3.2231950531453952,805986.8177047246,0.5728789088048394
35100.0,0.07690972040752239,-3.3335140946258757,805386.785167692,0.5769097204075224
35280.0,0.08093341225587362,-3.443437890918798,804766.9663473266,0.5809334122558736
35460.0,0.0849505173681547,-3.5529805055563473,804127.4298563265,0.5849505173681547
35640.0,0.08896153540683913,-3.662149913938207,803468.2428718177,0.5889615354068392
35820.0,0.09296692953188546,-3.770947975504729,802789.4722362268,0.5929669295318855
36000.0,0.0969671233469093,-3.8793704197425387,802091.1855606731,0.5969671233469093
36180.0,0.100962497945236,-3.9874068461149967,801373.4523283724,0.600962497945236
36360.0,0.10495338906262333,-4.095040737974502,800636.344995537,0.6049533890626233
36540.0,0.1089400843432323,-4.20224949047693,799879.9400872511,0.6089400843432323
36720.0,0.11292282072518978,-4.309004452482201,799104.3192858043,0.6129228207251898
36900.0,0.11690178195183604,-4.415270982387853,798309.5705089745,0.6169017819518361
37080.0,0.12087709621447625,-4.52100851780558,797495.7889757695,0.6208770962144763
37260.0,0.1248488339321654,-4.626170658953728,796663.0782571578,0.6248488339321654
37440.0,0.12881700567374857,-4.730705265601919,795811.5513093495,0.6288170056737485
37620.0,0.13278156022705268,-4.834554567367353,794941.3314872234,0.6327815602270527
37800.0,0.13674238281978607,-4.937655287126784,794052.5535355406,0.636742382819786
37980.0,0.14069929349634686,-5.0399387772718915,793145.3645556316,0.6406992934963469
38160.0,0.1446520456543721,-5.141331168501949,792219.9249453013,0.6446520456543721
38340.0,0.14860032474447876,-5.241753530813251,791276.4093097548,0.6486003247444787
38520.0,0.152543747136255,-5.341122046311988,790315.0073414186,0.652543747136255
38700.0,0.15648185915315888,-5.439348193445705,789335.9246665984,0.6564818591531589
38880.0,0.16041413627856974,-5.536338942217801,788339.3836569992,0.6604141362785697
39060.0,0.16433998253482107,-5.631996959920419,787325.6242042135,0.6643399825348211
39240.0,0.16825873003661934,-5.726220826893403,786294.9044553727,0.6682587300366194
39420.0,0.17216963871982546,-5.818905261790798,785247.5015082504,0.6721696387198255
39600.0,0.1760718962461461,-5.909941355812189,784183.7120642042,0.676071896246146
39780.0,0.17996461808384825,-5.999216815333093,783103.8530374442,0.6799646180838482
39960.0,0.1838468477641803,-6.086616212347978,782008.2621192215,0.6838468477641804
40140.0,0.18771755731275241,-6.172021242120791,780897.2982956398,0.6877175573127524
40320.0,0.1915756478546998,-6.255310987420297,779771.3423179041,0.6915756478546998
40500.0,0.1954199503920329,-6.336362188703162,778630.7971239375,0.6954199503920329
40680.0,0.1992492267511591,-6.4150495195946045,777476.0882104104,0.6992492267511591
40860.0,0.20306217069815224,-6.491245867005592,776307.6639543495,0.7030621706981522
41040.0,0.2068574092189441,-6.564822615217374,775125.9958836103,0.7068574092189441
41220.0,0.21063350396122338,-6.63564993325671,773931.5788956241,0.7106335039612234
41400.0,0.21438895283444492,-6.703597064882352,772724.9314239454,0.7143889528344449
41580.0,0.21812219176398617,-6.768532620499443,771506.5955522554,0.7181221917639862
41760.0,0.2218315965951346,-6.830324870319785,770277.1370755979,0.7218315965951346
41940.0,0.22551548514224887,-6.88884203808754,769037.1455087421,0.7255154851422488
42120.0,0.22917211937811402,-6.943952594693844,767787.2340416972,0.729172119378114
42300.0,0.23279970775820447,-6.99552555101047,766528.0394425153,0.7327997077582045
42480.0,0.23639640767427683,-7.043430749280543,765260.2219076449,0.7363964076742768
42660.0,0.2399603280314463,-7.087539152414793,763984.4648602102,0.7399603280314463
42840.0,0.2434895319426447,-7.127723130553212,762701.4746967106,0.7434895319426447
43020.0,0.24698203953412817,-7.1638567442666155,761411.9804827427,0.7469820395341282
43200.0,0.2504358308554869,-7.195816023787318,760116.7335984609,0.7504358308554868
