t(s),Tsurface(蚓),Flux(W),E(J),f_liq
0.0,4.0,19.200000000000017,0.0,1.0
180.0,3.6216383844602835,18.45102259007244,3321.1840662130394,1.0
360.0,3.4594120377481103,18.21281334160317,6599.490467701609,1.0
540.0,3.353327189282456,18.104786814973114,9858.35209439677,1.0
720.0,3.269478044766191,18.04613190573605,13106.65583742926,1.0
900.0,3.1953483336908994,18.006775742850806,16347.875471142404,1.0
1080.0,3.125699848008701,17.973983202131322,19583.192447526042,1.0
1260.0,3.058279105218169,17.9421857969635,22812.785890979474,1.0
1440.0,2.992111281077136,17.908913865869607,26036.390386836003,1.0
1620.0,2.926775908882656,17.873055627789388,29253.540399838093,1.0
1800.0,2.8620937286025945,17.834098088261918,32463.67805572524,1.0
1980.0,2.7979905178466655,17.79179413004697,35666.200999133696,1.0
2160.0,2.734437767470975,17.74601623569826,38860.48392155938,1.0
2340.0,2.6714268195321145,17.69669217469275,42045.88851300408,1.0
2520.0,2.6089575900623685,17.6437767167969,45221.76832202752,1.0
2700.0,2.5470336500815125,17.587239180138912,48387.47137445252,1.0
2880.0,2.5464030385234726,17.692606150706013,51572.140481579605,1.0
3060.0,2.543842159848015,17.78980162986228,54774.30477495481,1.0
3240.0,2.539077083622975,17.877860034211725,57992.319581112926,1.0
3420.0,2.5321722416549814,17.95674192315945,61224.533127281626,1.0
3600.0,2.523291709731091,18.026697571270518,64469.33869011032,1.0
3780.0,2.5170363279851657,18.100498137814313,67727.4283549169,1.0
3960.0,2.51101341836972,18.171415505691,70998.28314594128,1.0
4140.0,2.5052898065335927,18.23957060996974,74281.40585573584,1.0
4320.0,2.4962823683041258,18.29461544251922,77574.4366353893,0.9962823683041258
4500.0,2.4825849134771056,18.332248913382912,80874.24143979822,0.9825849134771056
4680.0,2.4662041265378565,18.357996379348826,84178.68078808101,0.9662041265378565
4860.0,2.448249569311954,18.374906427721996,87486.16394507096,0.9482495693119541
5040.0,2.429262261218063,18.384438171153704,90795.36281587863,0.9292622612180632
5220.0,2.40889061472866,18.385457596343134,94104.7451832204,0.90889061472866
5400.0,2.397725549733737,18.40926801324171,97418.4134256039,0.8977255497337371
5580.0,2.3873432142565076,18.43112947857591,100736.01673174756,0.8873432142565076
5760.0,2.377203737704905,18.44941399171595,104056.91125025642,0.8772037377049049
5940.0,2.367826034041532,18.465650890791864,107380.72841059895,0.8678260340415318
6120.0,2.359072257643379,18.479416077647794,110707.02330457556,0.8590722576433789
6300.0,2.350837156018117,18.490379210777512,114035.29156251551,0.8508371560181169
6480.0,2.3430331985786177,18.49826099613134,117364.97854181916,0.8430331985786177
6660.0,2.335586417475086,18.5028219762898,120695.48649755132,0.8355864174750862
6840.0,2.3284345988768345,18.50385814277449,124026.18096325072,0.8284345988768345
7020.0,2.32152592617786,18.5011977380251,127356.39655609523,0.82152592617786
7200.0,2.314817682699292,18.494698080403857,130685.44221056793,0.8148176826992919
7380.0,2.3082749899180923,18.48424235181999,134012.60583389553,0.8082749899180923
7560.0,2.301869623369538,18.469736491489176,137337.1584023636,0.8018696233695382
7740.0,2.2955789408349556,18.451106319166975,140658.35753981365,0.7955789408349556
7920.0,2.289384938934999,18.428294955305393,143975.45063176862,0.7893849389349992
8100.0,2.2832734396747387,18.401260559904742,147287.67753255146,0.7832734396747387
8280.0,2.277233399564416,18.36997438252505,150594.27292140597,0.7772333995644161
8460.0,2.2712563293931405,18.334419099708466,153894.4683593535,0.7712563293931405
8640.0,2.2653358110372612,18.294587408627912,157187.4940929065,0.7653358110372612
8820.0,2.259467097675456,18.25048084373169,160472.5806447782,0.7594670976754561
9000.0,2.253646784680665,18.202108784173006,163748.96022592936,0.7536467846806651
9180.0,2.2478725397798383,18.1494876224241,167015.8679979657,0.7478725397798383
9360.0,2.2421428825282574,18.092640067766332,170272.54321016363,0.7421428825282574
9540.0,2.2364570045748344,18.031594561793685,173518.2302312865,0.7364570045748344
9720.0,2.2308146235149686,17.96638478637445,176752.1794928339,0.7308146235149686
9900.0,2.225215864302029,17.897049247537712,179973.6483573907,0.725215864302029
10080.0,2.2196611632079724,17.8236309214264,183181.90192324744,0.7196611632079724
10260.0,2.2141511901935202,17.74617695077981,186376.2137743878,0.7141511901935202
10440.0,2.20868678628161,17.664738382391242,189555.86668321825,0.7086867862816102
10620.0,2.2032689131404637,17.579369937662506,192720.1532719975,0.7032689131404637
10800.0,2.1978986125909374,17.490129809783383,195868.3766377585,0.6978986125909374
10980.0,2.1925769741724865,17.397079482235718,198999.85094456095,0.6925769741724865
11160.0,2.1873051092471205,17.300283564294574,202113.90198613398,0.6873051092471205
11340.0,2.182084130403656,17.1998096400024,205209.86772133442,0.682084130403656
11520.0,2.176915135155863,17.095728127755887,208287.09878433048,0.6769151351558631
11700.0,2.1717991931169824,16.988112148189625,211344.9589710046,0.6717991931169824
11880.0,2.1667373359869613,16.87703739848915,214382.82570273266,0.6667373359869613
12060.0,2.1617305498140515,16.762582031632878,217400.09046842658,0.6617305498140515
12240.0,2.156779769094313,16.644826539363113,220396.15924551195,0.6567797690943129
12420.0,2.1518858723553405,16.52385363793286,223370.45290033988,0.6518858723553405
12600.0,2.1470496789377687,16.399748155875507,226322.40756839747,0.6470496789377687
12780.0,2.1422719467426723,16.27259692320985,229251.47501457523,0.6422719467426723
12960.0,2.1375533707572507,16.142488661626196,232157.12297366795,0.6375533707572507
13140.0,2.132894582207041,16.009513875308922,235038.83547122355,0.6328945822070411
13320.0,2.12829614821202,15.873764742140501,237896.11312480885,0.6282961482120202
13500.0,2.1237585718474903,15.735335005104035,240728.47342572757,0.6237585718474903
13680.0,2.1192822925297374,15.59431986376066,243535.4510012045,0.6192822925297374
13860.0,2.114867686661881,15.450815865726256,246316.59785703523,0.614867686661881
14040.0,2.110515068487824,15.304920798110862,249071.48360069518,0.6105150684878242
14220.0,2.106224691112335,15.156733578915336,251799.69564489994,0.606224691112335
14400.0,2.1019967476534176,15.006354148406066,254500.83939161303,0.6019967476534176
14580.0,2.0978313724997473,14.853883360508062,257174.53839650447,0.5978313724997473
14760.0,2.0937286426512607,14.699422874274049,259820.4345138738,0.5937286426512607
14940.0,2.0896885791252573,14.543075045500062,262438.1880220638,0.5896885791252573
15120.0,2.0857111484138517,14.384942818567868,265027.47772940603,0.5857111484138517
15300.0,2.081796263981367,14.225129618603672,267588.0010607547,0.5817962639813672
15480.0,2.0779437877925044,14.06373924404813,270119.47412468336,0.5779437877925044
15660.0,2.0741535318639013,13.90087575973771,272621.6317614361,0.5741535318639013
15840.0,2.070425259833132,13.736643390601007,275094.2275717443,0.5704252598331321
16020.0,2.0667586885403386,13.571146416075855,277537.03392663796,0.5667586885403386
16200.0,2.0631534896185855,13.404489065355596,279949.84195840196,0.5631534896185855
16380.0,2.0596092910897568,13.236775413571852,282332.46153284487,0.5596092910897568
16560.0,2.056125678963394,13.068109279024076,284684.7212030692,0.5561256789633942
16740.0,2.052702198836291,12.898594121563649,287006.46814495063,0.552702198836291
16920.0,2.049338357491042,12.728332942240904,289297.568074554,0.5493383574910422
17100.0,2.046033624491996,12.557428184322255,291557.905147732,0.5460336244919959
17280.0,2.0427874337772725,12.385981635782924,293787.38184217294,0.5427874337772725
17460.0,2.0395991852456694,12.214094333380148,295985.91882218135,0.5395991852456694
17640.0,2.036468246337392,12.041866468408461,298153.4547864949,0.536468246337392
17820.0,2.0333939536076326,11.869397294238285,300289.9462994578,0.5333939536076326
18000.0,2.030375614292091,11.69678503573551,302395.3676058902,0.5303756142920908
18180.0,2.0274125078635503,11.524126800658683,304469.71043000877,0.5274125078635503
18360.0,2.0245038875786903,11.351518493126584,306512.98375877156,0.5245038875786903
18540.0,2.021648982014281,11.179054729247664,308525.2136100361,0.5216489820142809
18720.0,2.018846996591961,11.006828754999054,310506.44278593594,0.5188469965919609
18900.0,2.016097115090763,10.83493236644082,312456.73061189527,0.516097115090763
19080.0,2.0133985011465816,10.663455832347687,314376.15266171785,0.5133985011465816
19260.0,2.0107502997377296,10.492487819337569,316264.8004691986,0.5107502997377296
19440.0,2.0081516386557703,10.322115319573173,318122.78122672177,0.5081516386557703
19620.0,2.0056016299607577,10.152423581109842,319950.2174713215,0.5056016299607577
19800.0,2.003099371420039,9.983496040959077,321747.2467586942,0.5030993714200389
19980.0,2.000643947929745,9.8154142609344,323514.0213256624,0.5006439479297451
20160.0,1.9982344329180948,9.648257866342396,325250.707741604,0.49823443291809477
20340.0,1.9958698897296334,9.482104487578196,326957.48654936807,0.4958698897296334
20520.0,1.9935493729895133,9.317029704681554,328634.55189621076,0.4935493729895133
20700.0,1.9912719299469182,9.153106994905414,330282.1111552937,0.49127192994691815
20880.0,1.9890366017967485,8.990407683345623,331900.3845382959,0.48903660179674846
21060.0,1.9868424249786576,8.82900089667644,333489.6046996977,0.4868424249786576
21240.0,1.9846884324525513,8.6689535200327,335050.0163333036,0.48468843245255133
21420.0,1.982573654949665,8.510330157075737,336581.8757615772,0.4825736549496651
21600.0,1.9804971221983205,8.353193093275971,338085.4505183669,0.4804971221983205
21780.0,1.9784578641234987,8.197602262441391,339561.01892560633,0.47845786412349867
21960.0,1.9764549120193569,8.043615216516834,341008.86966457934,0.47645491201935686
22140.0,1.9744872996938378,7.891287098675103,342429.3013423409,0.47448729969383785
22320.0,1.972554064584532,7.740670619716754,343822.6220538899,0.4725540645845321
22500.0,1.9706542488449668,7.591816037791166,345189.1489406923,0.47065424884496676
22680.0,1.9687869004005278,7.444771141447475,346529.2077461528,0.46878690040052784
22860.0,1.9669510739732274,7.299581236019487,347843.1323686363,0.46695107397322744
23040.0,1.9651458320745545,7.156289133344744,349131.2644126384,0.4651458320745545
23220.0,1.963370245965681,7.014935144813314,350393.9527387048,0.463370245965681
23400.0,1.9616233965843108,6.875557077737773,351631.5530126976,0.46162339658431084
23580.0,1.9599043754374994,6.73819023503152,352844.4272550033,0.4599043754374994
23760.0,1.9582122854597888,6.602867418178239,354032.9433902754,0.45821228545978876
23940.0,1.9565462418360524,6.46961893347079,355197.4747983001,0.4565462418360524
24120.0,1.954905372788456,6.338472601493886,356338.39986656903,0.454905372788456
24300.0,1.9532888203269996,6.209453769820126,357456.10154513665,0.4532888203269996
24480.0,1.9516957409631277,6.082585328885101,358550.96690433595,0.4516957409631277
24660.0,1.9501253063859427,5.957887731002413,359623.38669591636,0.4501253063859427
24840.0,1.9485767041005833,5.835379012475782,360673.754918162,0.44857670410058326
25020.0,1.947049138028393,5.715074818760791,361702.46838553896,0.44704913802839297
25200.0,1.9455418290685242,5.596988432624437,362709.92630341137,0.44554182906852424
25380.0,1.944054015620684,5.481130805247099,363696.52984835586,0.44405401562068403
25560.0,1.9425849540687647,5.367510590206497,364662.68175459304,0.44258495406876475
25740.0,1.9411339192251555,5.256134180280123,365608.78590704344,0.44113391922515555
25920.0,1.9397002047355623,5.1470057469975705,366535.246941503,0.43970020473556226
26100.0,1.938283123444246,5.040127282871133,367442.4698524198,0.4382831234442459
26280.0,1.9368820077195934,4.93549864622844,368330.8596087409,0.4368820077195934
26460.0,1.935496209740025,4.833117608567516,369200.82077828306,0.435496209740025
26640.0,1.934125101740267,4.73297990435078,370052.7571610662,0.43412510174026697
26820.0,1.9327680762180885,4.635079283150762,370887.0714320334,0.43276807621808855
27000.0,1.9314245461016362,4.539407564056836,371704.1647935636,0.43142454610163616
27180.0,1.930093944877562,4.445954692249057,372504.4366381684,0.43009394487756203
27360.0,1.9287757266802,4.354708797641425,373288.2842217439,0.4287757266801999
27540.0,1.9274693663420768,4.265656255494123,374056.1023477328,0.4274693663420768
27720.0,1.926174359406119,4.178781748890957,374808.2830625332,0.4261743594061189
27900.0,1.9248902220999615,4.0940683329754215,375545.21536246873,0.4248902220999615
28080.0,1.9236164912728118,4.011497500835976,376267.2849126192,0.42361649127281176
28260.0,1.922352724295382,3.931049250928478,376974.8737777863,0.42235272429538195
28440.0,1.9210984989234556,3.8527021559212624,377668.3601658522,0.42109849892345563
28620.0,1.9198534131257003,3.776433432846163,378348.1181837645,0.41985341312570035
28800.0,1.9186170848763953,3.7022190144362215,379014.51760636305,0.41861708487639526
28980.0,1.917389151913796,3.6300336215295532,379667.9236582384,0.417389151913796
29160.0,1.9161692714648904,3.5598508364163473,380308.6968087933,0.41616927146489036
29340.0,1.9149571199373852,3.4916431770048515,380937.19258065417,0.41495711993738515
29520.0,1.9137523925797661,3.4253821716806874,381553.76137155667,0.41375239257976615
29700.0,1.9125548031103672,3.3610384347325373,382158.7482898085,0.4125548031103672
29880.0,1.9113640833163894,3.2985817422164563,382752.4930034075,0.4113640833163894
30060.0,1.9101799826238897,3.2379811081300622,383335.3296028709,0.41017998262388966
30240.0,1.9090022676397769,3.1792048607675074,383907.58647780906,0.4090022676397769
30420.0,1.9078307216669175,3.122220719125715,384469.5862072517,0.4078307216669175
30600.0,1.906665144193472,3.066995869232138,385021.6454637135,0.4066651441934721
30780.0,1.905505350357641,3.013497040264609,385564.0749309611,0.4055053503576409
30960.0,1.9043511703890281,2.961690580334084,386097.17923542124,0.4043511703890281
31140.0,1.903202449027864,2.911542531801526,386621.2568911455,0.40320244902786406
31320.0,1.9020590449233648,2.8630187060013266,387136.60025822575,0.40205904492336475
31500.0,1.9009208300125442,2.8160847572442025,387643.4955145297,0.4009208300125442
31680.0,1.8997876888808134,2.7707062559742988,388142.22264060506,0.3997876888808134
31860.0,1.8986595181057349,2.726848760956281,388633.0554175772,0.39865951810573486
32040.0,1.897536225585324,2.6844778903702573,389116.26143784384,0.3975362255853241
32220.0,1.8964177298523173,2.6435593916941005,389592.1021283488,0.39641772985231727
32400.0,1.8953039593758372,2.6040592102551496,390060.8327861947,0.3953039593758372
32580.0,1.8941948518519123,2.565943556335556,390522.7026263351,0.3941948518519123
32760.0,1.89309035348432,2.5291789707182044,390977.95484106435,0.39309035348432
32940.0,1.8919904182572365,2.4937323885630813,391426.8266710057,0.39199041825723646
33120.0,1.8908950072011852,2.459571201507055,391869.54948727693,0.3908950072011852
33300.0,1.8898040876537896,2.4266633178832135,392306.3488844959,0.3898040876537896
33480.0,1.8887176325168284,2.3949772209596523,392737.4447842686,0.38871763251682845
33660.0,1.8876356195111108,2.3644820251010863,393163.0515487868,0.3876356195111108
33840.0,1.886558030430675,2.335147529760746,393583.3781041437,0.38655803043067505
34020.0,1.8854848503978165,2.306944271214114,393998.6280729623,0.38548485039781655
34200.0,1.884416067120449,2.27984357195022,394408.99991591333,0.38441606712044907
34380.0,1.883351670153281,2.253817587640871,394814.68708168867,0.3833516701532811
34560.0,1.8822916501642968,2.228839351612701,395215.87816497893,0.3822916501642968
34740.0,1.881235998208002,2.204882816751738,395612.75707199425,0.381235998208002
34920.0,1.8801847050068818,2.181922894775217,396005.50319305377,0.38018470500688184
35100.0,1.879137760242507,2.15993549281031,396394.29158175964,0.379137760242507
35280.0,1.8780951518576796,2.1388975472247913,396779.2931402601,0.3780951518576796
35460.0,1.8770568653710198,2.1187870546599052,397160.6748100989,0.3770568653710198
35640.0,1.8760228832053298,2.099583100221175,397538.5997681387,0.37602288320532984
35820.0,1.8749931840310676,2.081265882788426,397913.22762704064,0.37499318403106763
36000.0,1.8739677421262164,2.0638167374118663,398284.71463977476,0.3739677421262164
36180.0,1.8729465267538083,2.0472181547668904,398653.2139076328,0.37294652675380835
36360.0,1.8719295015583126,2.0314537976458222,399018.87559120904,0.3719295015583126
36540.0,1.870916623982079,2.0165085144708215,399381.8471238138,0.3709166239820789
36720.0,1.8699078447029491,2.0023683498178455,399742.273426781,0.36990784470294913
36900.0,1.86890310709415,1.9890205519475306,400100.29712613154,0.36890310709415
37080.0,1.8679023467074918,1.9764535773446439,400456.05877005355,0.3679023467074918
37260.0,1.8669054907808786,1.9646570922736732,400809.6970466628,0.36690549078087864
37440.0,1.8659124577710662,1.9536219713639336,401161.3490015083,0.3659124577710662
37620.0,1.864923156912565,1.9433402932434116,401511.1502542921,0.36492315691256505
37800.0,1.8639374878035195,1.9338053332462957,401859.2352142765,0.36393748780351953
37980.0,1.8629553400193475,1.9250115532249565,402205.737293857,0.3629553400193475
38160.0,1.8619765927548646,1.9169545885026518,402550.78911978746,0.3619765927548646
38340.0,1.8610011144955554,1.9096312320089497,402894.52274154907,0.3610011144955554
38520.0,1.860028762718598,1.9030394156452137,403237.06983636523,0.36002876271859807
38700.0,1.8590593836241913,1.8971781889329593,403578.56191037316,0.3590593836241913
38880.0,1.858092811897654,1.8920476950031018,403919.13049547374,0.3580928118976541
39060.0,1.857128870502734,1.8876491439892236,404258.9073413918,0.357128870502734
39240.0,1.8561673705064627,1.8839847838930568,404598.0246024925,0.35616737050646274
39420.0,1.8552081109358671,1.8810578689951172,404936.61501891166,0.3552081109358671
39600.0,1.854250878666752,1.8788726258881625,405274.8120915715,0.354250878666752
39780.0,1.8532954483447197,1.877434217215653,405612.7502506703,0.3532954483447197
39960.0,1.8523415823385283,1.8767487032016714,405950.5650172466,0.3523415823385283
40140.0,1.8513890307258136,1.8768230010629652,406288.3931574379,0.3513890307258136
40320.0,1.8504375313111554,1.8776648423976365,406626.3728290695,0.3504375313111554
40500.0,1.8494868096763692,1.8792827286487979,406964.6437202263,0.34948680967636925
40680.0,1.84853657926289,1.881685884745004,407303.3471794804,0.34853657926289006
40860.0,1.8475865414859987,1.8848842110225625,407642.6263374645,0.34758654148599866
41040.0,1.846636385880618,1.8888882335379025,407982.6262195013,0.34663638588061807
41220.0,1.8456857902783201,1.8937090528810236,408323.49384901987,0.34568579027832014
41400.0,1.8447344210151393,1.8993582916036769,408665.3783415085,0.3447344210151393
41580.0,1.8437819331697114,1.9058480403781968,409008.43098877656,0.3437819331697114
41760.0,1.8428279708312147,1.913190803005142,409352.8053333175,0.34282797083121475
41940.0,1.8418721673965193,1.9213994403896832,409698.65723258763,0.34187216739651927
42120.0,1.8409141458958982,1.9304871136082864,410046.14491303713,0.3409141458958982
42300.0,1.8399535193466041,1.9404672261886817,410395.4290137511,0.3399535193466041
42480.0,1.8389898911335494,1.951353365727115,410746.672619582,0.3389898911335494
42660.0,1.8380228554162894,1.9631592449677906,411100.04128367617,0.3380228554162894
42840.0,1.8370519975614537,1.975898642470019,411455.70303932077,0.33705199756145365
43020.0,1.8360768945997115,1.9895853429888555,411813.82840105874,0.33607689459971146
43200.0,1.8350971157063332,2.0042330776951993,412174.5903550439,0.33509711570633316
43380.0,1.8341122227043452,2.0198554643610764,412538.1643386289,0.33411222270434515
43560.0,1.8331217705892433,2.036465947635492,412904.7282092033,0.3331217705892433
43740.0,1.8321253080741915,2.0540777395355105,413274.4622023197,0.3321253080741915
43920.0,1.8311223781545884,2.072703760276387,413647.54887916945,0.33112237815458845
44100.0,1.830112518690858,2.0923565795634,414024.1730634909,0.330112518690858
44280.0,1.8290952630082766,2.1130483584666804,414404.5217680149,0.32909526300827663
