t(s),Tsurface(蚓),Flux(W),E(J),f_liq
0.0,2.0,28.79999999999996,0.0,1.0
180.0,1.1783956744611623,25.072149551151917,4512.986919207345,1.0
360.0,0.7982887035028531,23.429398783824126,8730.278700295687,1.0
540.0,0.5396199821646815,22.350561558799505,12753.379780879597,1.0
720.0,0.5394759880092773,22.531673267502374,16809.080969030023,1.0
900.0,0.5382502671843291,22.7045673377079,20895.903089817446,1.0
1080.0,0.5352601780668989,22.865481518163882,25011.689763086946,1.0
1260.0,0.5304726143757286,23.013850607161437,29154.182872376005,1.0
1440.0,0.5240543118757534,23.150133643570612,33321.206928218715,1.0
1620.0,0.5162254422458564,23.275098086478906,37510.72458378492,1.0
1800.0,0.507204544644399,23.389543821661587,41720.842471684,1.0
1980.0,0.4971877803713703,23.494193868084835,45949.797367939274,0.9971877803713702
2160.0,0.4863427959565666,23.589657326260447,50195.935686666155,0.9863427959565666
2340.0,0.4748090254638384,23.676425199017842,54457.692222489364,0.9748090254638384
2520.0,0.462700661346652,23.75488066417237,58733.57074204039,0.962700661346652
2700.0,0.45011047802210535,23.825314723369296,63022.12739224687,0.9501104780221054
2880.0,0.4371136469218868,23.887942763459733,67321.95708966962,0.9371136469218868
3060.0,0.4237711677571953,23.942919956702283,71631.68268187603,0.9237711677571954
3240.0,0.4101327883138899,23.990354675667813,75949.94652349624,0.9101327883138899
3420.0,0.3962394066790406,24.03031973677853,80275.40407611638,0.8962394066790407
3600.0,0.38212500436054636,24.062861592466025,84606.71916276026,0.8821250043605464
3780.0,0.36781817829580227,24.088007719560995,88942.56055228124,0.8678181782958023
3960.0,0.35334334176343823,24.10577248622606,93281.59959980194,0.8533433417634382
4140.0,0.33872165820992384,24.116161768892724,97622.50871820262,0.8387216582099238
4320.0,0.3239717630051196,24.11917656009391,101963.96049901952,0.8239717630051195
4500.0,0.3091103186888725,24.114815771402426,106304.62733787196,0.8091103186888725
4680.0,0.2941524405466338,24.103078399686222,110643.18144981549,0.7941524405466338
4860.0,0.2791120218134959,24.083965192599223,114978.29518448334,0.7791120218134959
5040.0,0.2640019815413245,24.0574799216753,119308.6415703849,0.7640019815413245
5220.0,0.24883445308688373,24.023630348611118,123632.8950331349,0.7488344530868838
5400.0,0.2336209271345562,23.98242895186804,127949.73224447115,0.7336209271345562
5580.0,0.21837235998407256,23.933893465985218,132257.8330683485,0.7183723599840726
5760.0,0.20309925534998466,23.878047274353428,136555.8815777321,0.7030992553499846
5940.0,0.1878117259941205,23.81491968706391,140842.5671214036,0.6878117259941205
6120.0,0.17251954002662317,23.744546128321325,145116.58542450145,0.6725195400266232
6300.0,0.1572321555690448,23.666968252382166,149376.63970993023,0.6572321555690448
6480.0,0.1419587465973127,23.58223400269258,153621.4418304149,0.6419587465973127
6660.0,0.1327971344728335,23.527653256347833,157856.4194165575,0.6327971344728335
6840.0,0.12376670013169157,23.466926245537707,162080.4661407543,0.6237667001316916
7020.0,0.1149172993497317,23.400365039684917,166292.53184789757,0.6149172993497317
7200.0,0.10629259276678107,23.32825359668871,170491.61749530153,0.606292592766781
7380.0,0.09791106399173435,23.250728829889862,174676.7486846817,0.5979110639917343
7560.0,0.08977098326320315,23.16780859769521,178846.9542322668,0.5897709832632032
7740.0,0.08186307351955631,23.079468690306964,183001.25859652206,0.5818630735195564
7920.0,0.07417714329079707,22.985683660406238,187138.6816553952,0.574177143290797
8100.0,0.06670425352611675,22.886440380731383,191258.24092392685,0.5667042535261168
8280.0,0.05943707997023728,22.78174045670904,195358.95420613448,0.5594370799702373
8460.0,0.052369709589334575,22.67159907738854,199439.84204006442,0.5523697095893346
8640.0,0.045497321657281604,22.556043091515768,203499.92979653727,0.5454973216572816
8820.0,0.03881589530371733,22.435109200730558,207538.24945266877,0.5388158953037173
9000.0,0.03232197693588168,22.308842490567397,211553.8411009709,0.5323219769358817
9180.0,0.026012506311064717,22.177295301991936,215545.75425532943,0.5260125063110647
9360.0,0.019884690954883693,22.040526386702776,219513.04900493592,0.5198846909548837
9540.0,0.01393591784126462,21.898600282153986,223454.79705572364,0.5139359178412646
9720.0,0.008163692822780936,21.75158685029425,227370.0826887766,0.508163692822781
9900.0,0.002016488828880941,21.59605413820857,231257.37243365415,0.502016488828881
10080.0,-0.0038789196796281925,21.43609456873517,235115.86945602647,0.49612108032037183
10260.0,-0.009531514605133521,21.271752385507902,238944.7848854179,0.4904684853948665
10440.0,-0.014949323772087908,21.103081526050538,242743.339560107,0.4850506762279121
10620.0,-0.020139537737450846,20.93014484017879,246510.7656313392,0.47986046226254914
10800.0,-0.02510862243007853,20.75301331543224,250246.308028117,0.47489137756992145
10980.0,-0.02986241923678583,20.57176536580963,253949.22579396272,0.47013758076321416
11160.0,-0.034406232243201065,20.386486188137336,257618.79330782744,0.46559376775679895
11340.0,-0.03874490397589131,20.19726717957376,261254.30140015073,0.4612550960241087
11520.0,-0.042882881163158644,20.004205408341555,264855.0583736522,0.45711711883684136
11700.0,-0.04682427188373152,19.807403130458532,268420.39093713474,0.4531757281162685
11880.0,-0.05057289527990527,19.606967346250002,271949.6450594597,0.44942710472009473
12060.0,-0.054132324835855054,19.403009391364925,275442.1867499054,0.44586767516414494
12240.0,-0.057512195591668605,19.195604652102745,278897.3955872839,0.4424878044083314
12420.0,-0.06066099937178302,18.985219850715616,282314.7351604127,0.43933900062821696
12600.0,-0.06364229588246131,18.77159167669571,285693.6216622179,0.4363577041175387
12780.0,-0.06645715593328023,18.554857269377674,289033.4959707059,0.4335428440667198
12960.0,-0.06910681150597164,18.335154775444156,292333.8238302858,0.43089318849402836
13140.0,-0.07159263823826473,18.112623299561648,295594.0960242069,0.4284073617617353
13320.0,-0.07391613945421431,17.887402844672206,298813.8285362479,0.4260838605457857
13500.0,-0.07607893219980276,17.65963423903709,301992.56269927457,0.4239210678001972
13680.0,-0.07808273516630203,17.429459050845246,305129.8653284267,0.42191726483369796
13860.0,-0.07992935827203229,17.197019491942708,308225.3288369764,0.4200706417279677
14040.0,-0.08162069367154119,16.962458312271742,311278.5713331853,0.4183793063284588
14220.0,-0.08315870798401379,16.72591868648197,314289.2366967521,0.4168412920159862
14400.0,-0.0845454355587096,16.487544094021143,317256.9946336759,0.4154545644412904
14580.0,-0.08578297261940948,16.247478193870794,320181.54070857266,0.4142170273805905
14760.0,-0.08687347215131214,16.00586469496063,323062.5963536656,0.41312652784868786
14940.0,-0.08781913941259539,15.762847223180641,325899.9088538381,0.4121808605874046
15120.0,-0.08862222796922162,15.518569185808092,328693.2513072836,0.4113777720307784
15300.0,-0.0892850361658074,15.273173634075942,331442.4225614173,0.4107149638341926
15480.0,-0.0898099039577611,15.026803124531533,334147.24712383293,0.4101900960422389
15660.0,-0.09019921004065662,14.779599579762372,336807.57504819013,0.4098007899593434
15840.0,-0.09045536922216087,14.531704149005714,339423.28179501113,0.40954463077783915
16020.0,-0.09058082998995173,14.283257069104158,341994.26806744986,0.40941917001004824
16200.0,-0.09057807223610709,14.034397526219937,344520.45962216944,0.4094219277638929
16380.0,-0.09044960510455298,13.785263518680736,347001.80705553194,0.40955039489544703
16560.0,-0.09019796493345193,13.53599172129039,349438.28556536423,0.40980203506654805
16740.0,-0.08982571326899383,13.286717351406391,351829.8946886174,0.4101742867310062
16920.0,-0.08933543493101422,13.03757403705584,354176.6580152874,0.4106645650689858
17100.0,-0.08872973611428996,12.788693687337263,356478.6228790081,0.41127026388571003
17280.0,-0.08801124251231641,12.540206365332077,358735.86002476787,0.4119887574876836
17460.0,-0.08718259745291848,12.29224016372934,360948.4632542392,0.41281740254708155
17640.0,-0.08624646003724022,12.044921083351348,363116.5490492424,0.41375353996275976
17820.0,-0.0852055032755426,11.798372914750196,365240.2561738974,0.4147944967244574
18000.0,-0.08406241221485511,11.552717123032082,367319.7452560432,0.4159375877851449
18180.0,-0.08281988205491157,11.308072736055678,369355.19834853325,0.4171801179450884
18360.0,-0.08148061624998278,11.0645562361365,371346.81847103784,0.41851938375001724
18540.0,-0.08004732459522637,10.822281455383486,373294.82913300686,0.41995267540477366
18720.0,-0.07852272129702982,10.581359474782172,375199.4738384677,0.4214772787029702
18900.0,-0.07690952302754746,10.341898527132917,377061.0155733516,0.42309047697245256
19080.0,-0.07521044696424323,10.104003903945108,378879.7362760617,0.4247895530357568
19260.0,-0.07342820881576428,9.867777866381907,380655.9362920104,0.4265717911842357
19440.0,-0.07156552083589802,9.633319560344525,382389.93381287245,0.428434479164102
19620.0,-0.06962508982772052,9.400724935779742,384082.0643013128,0.43037491017227947
19800.0,-0.06760961514033588,9.17008667028951,385732.6799019649,0.43239038485966413
19980.0,-0.06552178666084384,8.94149409711701,387342.14883944596,0.43447821333915615
20160.0,-0.06336428280436283,8.715033137579265,388910.85480421025,0.43663571719563715
20340.0,-0.06113976850508762,8.490786238012396,390439.1963270525,0.4388602314949124
20520.0,-0.05885089321147432,8.268832311291833,391927.58614308503,0.4411491067885257
20700.0,-0.05650028888873459,8.049246682985892,393376.4505460225,0.4434997111112654
20880.0,-0.05409056803187888,7.832101042197706,394786.2287336181,0.4459094319681211
21060.0,-0.051624321692589493,7.617463397146708,396157.3721451045,0.4483756783074105
21240.0,-0.04910411752322315,7.405398035537251,397490.34379150125,0.45089588247677687
21420.0,-0.04653249784124803,7.195965489758597,398785.6175796578,0.453467502158752
21600.0,-0.04391197771740924,6.989222506956443,400043.67763090995,0.45608802228259077
21780.0,-0.04124504309089645,6.785222024012749,401265.01759523223,0.45875495690910356
21960.0,-0.03853414891475474,6.58401314746683,402450.13996177627,0.46146585108524524
22140.0,-0.035781717334739685,6.385641138406265,403599.5553666894,0.46421828266526033
22320.0,-0.032990135904768986,6.1901474023528715,404713.7818991129,0.46700986409523104
22500.0,-0.03016175584206832,5.997569484164148,405793.34440626245,0.4698382441579317
22680.0,-0.027298890325048134,5.8079410679666825,406838.77379849646,0.4727011096749519
22860.0,-0.024403812836881745,5.621291982133151,407850.60635528044,0.47559618716311824
23040.0,-0.02147875555768484,5.437648209310339,408829.3830329563,0.47852124444231514
23220.0,-0.018525907808120884,5.257031901500125,409775.6487752263,0.4814740921918791
23400.0,-0.01554741454717849,5.079461400190991,410689.9518272607,0.4844525854528215
23580.0,-0.012545374926784023,4.9049512615318775,411572.84305433644,0.48745462507321596
23760.0,-0.009521840905826981,4.733512286535143,412424.87526591273,0.490478159094173
23940.0,-0.006478815926086497,4.565151556289346,413246.6025460448,0.4935211840739135
24120.0,-0.003418253652454961,4.399872472157381,414038.5795910331,0.49658174634754504
24300.0,-0.00034205677975968903,4.237674800928838,414801.3610552003,0.4996579432202403
24480.0,0.002747924091614596,4.078554724889716,415535.5009056804,0.5027479240916146
24660.0,0.005849891509201216,3.92250489676605,416241.5517870983,0.5058498915092012
24840.0,0.008962102149027444,3.769514499491474,416920.06439700676,0.5089621021490275
25020.0,0.012082867721400218,3.619569310742162,417571.58687294036,0.5120828677214002
25200.0,0.015210555800121475,3.472651772175273,418196.6641919319,0.5152105558001214
25380.0,0.018343590573464946,3.3287410633006758,418795.83758332604,0.5183435905734649
25560.0,0.021480453515362572,3.1878131799077596,419369.6439557094,0.5214804535153625
25740.0,0.024619683975367002,3.04984101696239,419918.61533876264,0.524619683975367
25920.0,0.027759879686078456,2.91479445588141,420443.27834082127,0.5277598796860784
26100.0,0.030899697186848048,2.782640456084371,420944.15362291643,0.530899697186848
26280.0,0.03403785216269788,2.653343150714912,421421.7553900451,0.5340378521626978
26460.0,0.03717311969752763,2.5268639464161895,421876.5909004,0.5371731196975277
26640.0,0.04030433444081076,2.4031616270371066,422309.1599932667,0.5403043344408107
26820.0,0.043430390687119,2.282192461138285,422719.9546362716,0.543430390687119
27000.0,0.046550242367952195,2.163910313158964,423109.4584926402,0.5465502423679522
27180.0,0.04966290295549159,2.0482667580980998,423478.14650909783,0.5496629029554916
27360.0,0.05276744527803806,1.9352111995552854,423826.4845250178,0.552767445278038
27540.0,0.05586300124704259,1.8246909909692897,424154.9289033923,0.5558630012470426
27720.0,0.05894876149578442,1.7166515598844612,424463.92618417146,0.5589487614957844
27900.0,0.06202397492990197,1.6110365350676255,424753.9127604836,0.562023974929902
28080.0,0.06508794819013396,1.5077878762907777,425025.31457821594,0.565087948190134
28260.0,0.06814004502778169,1.40684600658754,425278.5468594017,0.5681400450277817
28440.0,0.07117968559355826,1.3081499467843192,425514.01384982286,0.5711796855935583
28620.0,0.07420634564064675,1.2116374521002298,425732.1085912009,0.5742063456406468
28800.0,0.07721955564294693,1.1172451506031902,425933.2127183095,0.5772195556429469
28980.0,0.08021889982964778,1.024908683303273,426117.69628130406,0.5802188998296478
29160.0,0.08320401513742146,0.9345628456582531,426285.9175935225,0.5832040151374215
29340.0,0.08617459008169259,0.8461417302605543,426438.2231049694,0.5861745900816926
29520.0,0.08913036354859563,0.759578870469438,426574.9473016539,0.5891303635485956
29700.0,0.09207112350938976,0.674807384747073,426696.41263090837,0.5920711235093897
29880.0,0.09499670565925851,0.5917601214526829,426802.92945276987,0.5949967056592586
30060.0,0.09790699198257642,0.5103698038445525,426894.79601746186,0.5979069919825765
30240.0,0.1008019092468788,0.4305691750359818,426972.29846896837,0.6008019092468788
30420.0,0.10368142742792298,0.35229114264805195,427035.71087464504,0.603681427427923
30600.0,0.10654555806837875,0.27546892289904923,427085.29528076685,0.6065455580683787
30780.0,0.1093943525728322,0.2000361838683877,427121.3017938632,0.6093943525728323
30960.0,0.11222790044193151,0.12592718767085453,427143.96868764394,0.6122279004419315
31140.0,0.11504632744864184,0.05307693127606309,427153.52253527363,0.6150463274486418
31320.0,0.11784979375971358,-0.018578714292765756,427150.17836670094,0.6178497937597136
31500.0,0.12063849200559934,-0.08910286664647345,427134.1398507046,0.6206384920055994
31680.0,0.12341264530218135,-0.15855749686929077,427105.5995012681,0.6234126453021813
31860.0,0.1261725052277919,-0.22700329677375752,427064.73890784883,0.6261725052277919
32040.0,0.12891834975912703,-0.29449954883332796,427011.7289890588,0.6289183497591271
32220.0,0.13165048116976077,-0.36110399905210583,426946.73026922945,0.6316504811697607
32400.0,0.13436922389507205,-0.42687273302814965,426869.8931772844,0.634369223895072
32580.0,0.13707492236749175,-0.49186005546268896,426781.3583673011,0.6370749223674917
32760.0,0.1397679388260673,-0.556118373363305,426681.2570600957,0.6397679388260673
32940.0,0.1424486511044232,-0.6196980831837737,426569.71140512265,0.6424486511044232
33120.0,0.1451174504012679,-0.6826474621374179,426446.8348619379,0.6451174504012679
33300.0,0.1477747390376662,-0.7450125639144491,426312.7326004333,0.6477747390376662
33480.0,0.15042092820534897,-0.8068371190263501,426167.50191900856,0.650420928205349
33660.0,0.1530564357103826,-0.8681624399927744,426011.23267980985,0.6530564357103826
33840.0,0.15568168371655786,-0.9290273315777756,425844.00776012585,0.6556816837165579
34020.0,0.15829709649288695,-0.9894680062732286,425665.90351899667,0.6582970964928869
34200.0,0.16090309816961845,-1.0495180052175372,425476.9902780575,0.6609030981696185
34380.0,0.1635001105071875,-1.109208124727481,425277.33281560655,0.6635001105071875
34560.0,0.16608855068252046,-1.1685663486101912,425066.9908728567,0.6660885506825205
34740.0,0.16866882909710157,-1.227617786410907,424846.01967130275,0.6686688290971016
34920.0,0.17124134721118894,-1.2863846177401468,424614.47044010955,0.6712413472111889
35100.0,0.17380649540853638,-1.3448860428117322,424372.3909524034,0.6738064954085363
35280.0,0.1763646508959367,-1.4031382393100356,424119.8260693276,0.6763646508959367
35460.0,0.17891617564184922,-1.461154325691775,423856.81829070306,0.6789161756418493
35640.0,0.18146141435831442,-1.5189443310138575,423583.4083111206,0.6814614143583144
35820.0,0.18400069253028348,-1.5765151713648617,423299.6355802749,0.6840006925302835
36000.0,0.1865343144964117,-1.6338706329633963,423005.5388663415,0.6865343144964117
36180.0,0.18906256158526813,-1.6910113619719749,422701.15682118654,0.6890625615852681
36360.0,0.19158569031081527,-1.7479348610603171,422386.52854619565,0.6915856903108153
36540.0,0.19410393063089684,-1.8046354927367887,422061.694157503,0.6941039306308968
36720.0,0.19661748427235323,-1.8611044894517543,421726.6953494017,0.6966174842723533
36900.0,0.19912652312625034,-1.9173299704612212,421381.57595471863,0.6991265231262503
37080.0,0.20163118771657043,-1.9732969654239065,421026.38250094233,0.7016311877165704
37260.0,0.20413158574556184,-2.028987444689512,420661.1647608982,0.7041315857455619
37440.0,0.20662779071879145,-2.084380356220844,420285.9762967785,0.7066277907187914
37620.0,0.20911984065277484,-2.13945166907696,419900.8749963446,0.7091198406527748
37800.0,0.21160773686789092,-2.1941744233698457,419505.92360013805,0.7116077368678909
37980.0,0.21409144286910545,-2.248518786591881,419101.1902185515,0.7140914428691054
38160.0,0.2165708833168439,-2.3024521161970513,418686.748837636,0.7165708833168439
38340.0,0.21904594309016107,-2.355939028304179,418262.6798125413,0.719045943090161
38520.0,0.22151646644415865,-2.4089414723766462,417829.0703475135,0.7215164664441587
38700.0,0.22398225626339813,-2.461418811719281,417386.014961404,0.7239822562633982
38880.0,0.22644307341285036,-2.5133279096196732,416933.6159376725,0.7264430734128504
39060.0,0.22889863618771233,-2.5646232209486803,416471.98375790176,0.7288986361877123
39240.0,0.23134861986320535,-2.615256889022057,416001.2375178778,0.7313486198632053
39420.0,0.2337926563452563,-2.6651788475137326,415521.5053253253,0.7337926563452564
39600.0,0.2362303339227389,-2.7143369271997253,415032.9246784293,0.736230333922739
39780.0,0.23866119712173653,-2.7626769673010028,414535.6428243151,0.7386611971217365
39960.0,0.24108474666206273,-2.810142931183662,414029.81709670206,0.7410847466620627
40140.0,0.24350043951605607,-2.8566770261652987,413515.6152319923,0.743500439516056
40320.0,0.24590768906944305,-2.902219827167608,412993.21566310216,0.745907689069443
40500.0,0.24830586538384383,-2.9467104039474257,412462.8077903916,0.7483058653838438
40680.0,0.25069429556027406,-2.990086451630894,411924.592229098,0.750694295560274
40860.0,0.2530722642027819,-3.032284424269008,411378.7810327296,0.7530722642027818
41040.0,0.255439013981144,-3.0732396711269665,410825.59789192677,0.755439013981144
41220.0,0.2577937462913322,-3.1128865754145605,410265.27830835216,0.7577937462913322
41400.0,0.26013562201225904,-3.1511586951608317,409698.0697432232,0.760135622012259
41580.0,0.2624637623571035,-3.1879889059324413,409124.2317401554,0.7624637623571036
41760.0,0.26477724981732537,-3.223309545092892,408544.03602203866,0.7647772498173253
41940.0,0.26707512919728027,-3.2570525572974325,407957.7665617251,0.7670751291972803
42120.0,0.26935640873716626,-3.2891496409177177,407365.71962635993,0.7693564087371663
42300.0,0.2716200613218477,-3.3195323950898246,406768.20379524375,0.7716200613218477
42480.0,0.27386502577293403,-3.348132467079699,406165.5399511694,0.773865025772934
42660.0,0.27609020822132563,-3.3748816996614974,405558.0612452303,0.7760902082213257
42840.0,0.2782944835572754,-3.3997122782059677,404946.11303515325,0.7782944835572754
