t(s),Tsurface(蚓),Flux(W),E(J),f_liq
0.0,-2.0,9.600000000000009,0.0,0.0
180.0,-2.2625731209971893,8.41138083329149,1514.0485499924682,0.0
360.0,-2.3782391942368597,7.916070274576514,2938.941199416241,0.0
540.0,-2.45029638615867,7.623625175550542,4311.193731015339,0.0
720.0,-2.500754801123134,7.430100435879578,5648.611809473663,0.0
900.0,-2.5385489175830065,7.293366639923174,6961.4178046598345,0.0
1080.0,-2.5685351461772816,7.190399063963803,8255.68963617332,0.0
1260.0,-2.593601048569308,7.107389495996552,9535.019745452699,0.0
1440.0,-2.6155059786939945,7.035842187337162,10801.471339173388,0.0
1620.0,-2.635328175339675,6.970495792518488,12056.160581826716,0.0
1800.0,-2.6537286896934993,6.90808874268904,13299.616555510744,0.0
1980.0,-2.6711121320861158,6.846601021469689,14532.004739375288,0.0
2160.0,-2.6877254201491643,6.784784256821674,15753.26590560319,0.0
2340.0,-2.703718563213384,6.721869875184416,16963.202483136385,0.0
2520.0,-2.719182083091948,6.657387819158248,18161.53229058487,0.0
2700.0,-2.7341700420390826,6.591053988627135,19347.922008537753,0.0
2880.0,-2.7487142056220053,6.522700389391296,20522.008078628187,0.0
3060.0,-2.762832747939408,6.452231806414338,21683.409803782768,0.0
3240.0,-2.776535598885091,6.379598939338796,22831.73761286375,0.0
3420.0,-2.7898277265962435,6.304781747589142,23966.598327429798,0.0
3600.0,-2.802711151001595,6.227779122438022,25087.598569468642,0.0
3780.0,-2.815186178039653,6.148602476878994,26194.347015306863,0.0
3960.0,-2.8272521554938765,6.067271759551943,27286.455932026212,0.0
4140.0,-2.838907935326394,5.983812967252953,28363.542266131743,0.0
4320.0,-2.8501521560193783,5.898256583094097,29425.22845108868,0.0
4500.0,-2.8609834145717983,5.810636585909017,30471.1430365523,0.0
4680.0,-2.871400370861699,5.720989811863184,31500.921202687674,0.0
4860.0,-2.881401810550815,5.629355533011264,32514.2051986297,0.0
5040.0,-2.8909866825669694,5.535775169363289,33510.64472911509,0.0
5220.0,-2.9001541209830806,5.440292083045871,34489.89730406335,0.0
5400.0,-2.9089034573029258,5.342951422920442,35451.62856018903,0.0
5580.0,-2.91723422683202,5.243800000222006,36395.512560228985,0.0
5760.0,-2.9251461713848967,5.142886183303844,37321.23207322368,0.0
5940.0,-2.932639239707417,5.040259804205586,38228.478837980685,0.0
6120.0,-2.9397135864591353,4.935972072612102,39116.953811050866,0.0
6300.0,-2.9463695702748547,4.830075494520374,39986.36740006453,0.0
6480.0,-2.952607751225205,4.722623794005655,40836.439682985554,0.0
6660.0,-2.958428887874521,4.6136718371344365,41666.90061366975,0.0
6840.0,-2.9638339340599194,4.50327555747214,42477.49021401473,0.0
7020.0,-2.9688240354699955,4.391491882876335,43267.95875293247,0.0
7200.0,-2.9734005260737737,4.27837866341236,44038.066912346694,0.0
7380.0,-2.977564924433347,4.1639946003151405,44787.58594040342,0.0
7560.0,-2.981318929923185,4.048399175971506,45516.297792078294,0.0
7740.0,-2.984664418872405,3.931652584925899,46223.99525736496,0.0
7920.0,-2.9876034406422227,3.8138156659272155,46910.482077231856,0.0
8100.0,-2.990138213648102,3.6949498350414607,47575.57304753932,0.0
8280.0,-2.9922711213343254,3.575117019856832,48219.094111113554,0.0
8460.0,-2.994004708107536,3.4543795948069773,48840.88243817881,0.0
8640.0,-2.9953416752348905,3.3328003176353818,49440.786495353175,0.0
8820.0,-2.9962848767117825,3.2104422670207335,50018.66610341691,0.0
9000.0,-2.996837315103592,3.0873687813787956,50574.392484065094,0.0
9180.0,-2.997002137365426,2.9636433988524526,51107.84829585854,0.0
9360.0,-2.996782630643415,2.8393297984974413,51618.92765958808,0.0
9540.0,-2.996182218060798,2.714491742667328,52107.5361732682,0.0
9720.0,-2.995204454491656,2.589193020597257,52573.59091697571,0.0
9900.0,-2.993853022324877,2.463497393182772,53017.020447748604,0.0
10080.0,-2.9921317272205927,2.3374685389462067,53437.76478475892,0.0
10260.0,-2.9900444938611086,2.2111700011802817,53835.77538497137,0.0
10440.0,-2.9875953616980424,2.0846651362554915,54211.015109497355,0.0
10620.0,-2.9847884806971385,1.9580170630751605,54563.45818085088,0.0
10800.0,-2.9816281070820274,1.8312886136597857,54893.09013130964,0.0
10980.0,-2.9781185990779453,1.7045422848398128,55199.90774258081,0.0
11160.0,-2.9742644126562094,1.5778401910344326,55483.918976967005,0.0
11340.0,-2.970070097280112,1.4512440180917374,55745.142900223516,0.0
11520.0,-2.9655402916526534,1.3248149781645469,55983.609596293136,0.0
11700.0,-2.9606797194663854,1.1986137655947173,56199.36007410019,0.0
11880.0,-2.9554931851555266,1.0727005137775707,56392.44616658015,0.0
12060.0,-2.9499855696503072,0.9471347529774415,56562.93042211609,0.0
12240.0,-2.9441618261334184,0.8219753690646714,56710.885988547736,0.0
12420.0,-2.9380269757983255,0.6972805631436191,56836.39648991359,0.0
12600.0,-2.9315861036091064,0.5731078120414673,56939.55589608105,0.0
12780.0,-2.924844354061371,0.44951382962712944,57020.46838541394,0.0
12960.0,-2.9178069269437867,0.3265545289300156,57079.24820062134,0.0
13140.0,-2.910479073099652,0.20428498502843095,57116.019497926456,0.0
13320.0,-2.902866090187917,0.08275939867807519,57130.91618968851,0.0
13500.0,-2.8949733184430455,-0.03796893934825023,57124.081780605826,0.0
13680.0,-2.8868061364330675,-0.15784768323799203,57095.669197622985,0.0
13860.0,-2.878369956815196,-0.2768254664601401,57045.84061366016,0.0
14040.0,-2.869670222088365,-0.394851935456516,56974.76726527799,0.0
14220.0,-2.8607124003421225,-0.5118777827277151,56882.629264387,0.0
14400.0,-2.851501981001282,-0.6278547793366432,56769.6154041064,0.0
14580.0,-2.8420444705658543,-0.7427358068512177,56635.92295887318,0.0
14760.0,-2.832345388345818,-0.8564748887459073,56481.75747889892,0.0
14940.0,-2.822410262190357,-0.9690272212797,56307.33257906858,0.0
15120.0,-2.812244624211342,-1.0803492038662335,56112.869722372656,0.0
15300.0,-2.801854006500853,-1.1903984689493268,55898.59799796178,0.0
15480.0,-2.7912439368427746,-1.2991339113949285,55664.75389391069,0.0
15660.0,-2.7804199344185276,-1.4065157174078586,55411.581064777274,0.0
15840.0,-2.769387505507226,-1.5125053929791397,55139.330094041026,0.0
16020.0,-2.758152139180692,-1.6170657918668376,54848.258251504994,0.0
16200.0,-2.7467193029939043,-1.7201611431103205,54538.629245745135,0.0
16380.0,-2.73509443867173,-1.8217570780750298,54210.71297169163,0.0
16560.0,-2.723282957792901,-1.9218206570212877,53864.7852534278,0.0
16740.0,-2.7112902374725087,-2.020320395187751,53501.127582294,0.0
16920.0,-2.6991216160444527,-2.117226288376319,53120.02685038626,0.0
17100.0,-2.686782388745585,-2.2125098380220924,52721.77507954228,0.0
17280.0,-2.6742778034034953,-2.3061440757280054,52306.66914591124,0.0
17460.0,-2.6616130561302302,-2.398103587240312,51875.01050020799,0.0
17640.0,-2.648793287024453,-2.4883645358370696,51427.10488375732,0.0
17820.0,-2.635823575884911,-2.576904685097916,50963.262040439695,0.0
18000.0,-2.6227089379383504,-2.663703421019473,50483.79542465619,0.0
18180.0,-2.6094543195853652,-2.748741773436531,49989.021905437614,0.0
18360.0,-2.5960645941679865,-2.8320024367052152,49479.26146683068,0.0
18540.0,-2.58254455776319,-2.9134697896001343,48954.83690470266,0.0
18720.0,-2.5688989250068084,-2.9931299143732106,48416.07352011548,0.0
18900.0,-2.5551323249527513,-3.0709706149179365,47863.29880943026,0.0
19080.0,-2.5412492969727682,-3.1469814339783815,47296.84215131415,0.0
19260.0,-2.527254286702381,-3.221153669338248,46717.03449083327,0.0
19440.0,-2.5131516420389963,-3.2934803889211666,46124.20802082746,0.0
19620.0,-2.4989456091985915,-3.363956444729122,45518.69586077621,0.0
19800.0,-2.484640328837767,-3.4325784855423707,44900.83173337859,0.0
19980.0,-2.470239832248324,-3.499344968299743,44270.94963908463,0.0
20160.0,-2.4557480376319463,-3.564256168074965,43629.38352883114,0.0
20340.0,-2.4411687464629233,-3.6273141865607026,42976.46697525021,0.0
20520.0,-2.4265056399472615,-3.68852295896887,42312.53284263581,0.0
20700.0,-2.4117622755868866,-3.7478882592521883,41637.912955970416,0.0
20880.0,-2.3969420838579962,-3.8054177035494035,40952.937769331525,0.0
21060.0,-2.382048365013028,-3.861120751753554,40257.93603401589,0.0
21240.0,-2.367084286015977,-3.915008707100357,39553.23446673783,0.0
21420.0,-2.352052877621173,-3.9670947136718357,38839.157418276896,0.0
21600.0,-2.3369570316059267,-4.017393751708447,38116.026542969375,0.0
21780.0,-2.321799498167699,-4.065922630621765,37384.160469457456,0.0
21960.0,-2.30658288349677,-4.112699979598923,36643.87447312965,0.0
22140.0,-2.291309647535536,-4.157746235689631,35895.480150705516,0.0
22320.0,-2.2759821019358197,-4.2010836292667015,35139.28509743751,0.0
22500.0,-2.2606024082257115,-4.24273616675182,34375.59258742218,0.0
22680.0,-2.2451725761975836,-4.28272961049945,33604.70125753228,0.0
22860.0,-2.229694462529013,-4.321091455733767,32826.9047955002,0.0
23040.0,-2.214169769648356,-4.357850904436079,32042.49163270171,0.0
23220.0,-2.19860004485674,-4.3930388360833845,31251.7446422067,0.0
23400.0,-2.1829866797181383,-4.426687775142815,30454.940842680993,0.0
23580.0,-2.1673309097290954,-4.458831855231362,29652.35110873935,0.0
23760.0,-2.1516338142794638,-4.489506779855899,28844.239888365286,0.0
23940.0,-2.1358963169153107,-4.51874977965471,28030.864928027437,0.0
24120.0,-2.1201191859147923,-4.546599566069071,27212.477006135003,0.0
24300.0,-2.1043030351874683,-4.573096281381323,26389.319675486364,0.0
24480.0,-2.088448325507036,-4.59828144506468,25561.62901537472,0.0
24660.0,-2.0725553660869913,-4.622197896399902,24729.633394022738,0.0
24840.0,-2.0566243165080866,-4.644889733324486,23893.55324202433,0.0
25020.0,-2.0406551890058258,-4.666402247491438,23053.60083747587,0.0
25200.0,-2.0246478511254393,-4.686781855526962,22209.98010348102,0.0
25380.0,-2.0086020287510213,-4.706076026489937,21362.88641871283,0.0
25560.0,-1.9925173095145379,-4.724333205549323,20512.50644171395,0.0
25740.0,-1.9763931465894846,-4.7416027339112246,19659.01794960993,0.0
25920.0,-1.9602288628728841,-4.757934765042223,18802.58969190233,0.0
26100.0,-1.9440236555581667,-4.773380177252104,17943.38125999695,0.0
26280.0,-1.927776601100306,-4.787990482715998,17081.54297310807,0.0
26460.0,-1.911486660573237,-4.801817733033283,16217.215781162078,0.0
26640.0,-1.8951526854182836,-4.814914421438824,15350.53118530309,0.0
26820.0,-1.8787734235808597,-4.827333381800248,14481.611176579047,0.0
27000.0,-1.8623475260312536,-4.839127684554111,13610.568193359306,0.0
27180.0,-1.845873553663751,-4.850350529752597,12737.505098003838,0.0
27360.0,-1.8293499845667653,-4.861055137411812,11862.515173269712,0.0
27540.0,-1.8127752216550377,-4.871294635371921,10985.682138902766,0.0
27720.0,-1.7961476006532426,-4.881121944898658,10107.080188821008,0.0
27900.0,-1.7794653984187172,-4.890589664274641,9226.774049251573,0.0
28080.0,-1.762726841589242,-4.899749950648013,8344.81905813493,0.0
28260.0,-1.7459301155401332,-4.908654400423626,7461.261266058677,0.0
28440.0,-1.7290733736331287,-4.9173539285003685,6576.137558928611,0.0
28620.0,-1.7121547467378915,-4.925898646674533,5689.475802527195,0.0
28800.0,-1.6951723530051863,-4.934337741545812,4801.2950090489485,0.0
28980.0,-1.6781243078691896,-4.9427193522772725,3911.6055256390396,0.0
29160.0,-1.6610087342547155,-4.951090448574528,3020.4092448956244,0.0
29340.0,-1.6438237729635963,-4.959496709262394,2127.6998372283933,0.0
29520.0,-1.6265675932129644,-4.967982401848112,1233.463004895733,0.0
29700.0,-1.6092384032967242,-4.976590263470062,337.67675747112196,0.0
29880.0,-1.5918344613402047,-4.985361383638929,-559.6882915838852,0.0
30060.0,-1.574354086116723,-4.994335089184185,-1458.6686076370383,0.0
30240.0,-1.5567956678936783,-5.003548831823356,-2359.3073973652427,0.0
30420.0,-1.5391576792748096,-5.013038078773369,-3261.654251544449,0.0
30600.0,-1.5214386860043598,-5.022836206823632,-4165.764768772702,0.0
30780.0,-1.503637357698208,-5.032974400288324,-5071.7001608246,0.0
30960.0,-1.4857524784664218,-5.043481553250996,-5979.52684040978,0.0
31140.0,-1.4677829573913135,-5.054384176507989,-6889.315992181218,0.0
31320.0,-1.4497278388248327,-5.065706309608207,-7801.143127910695,0.0
31500.0,-1.4315863124690529,-5.077469438375425,-8715.087626818271,0.0
31680.0,-1.4133577232036487,-5.089692418285731,-9631.232262109703,0.0
31860.0,-1.3950415806245553,-5.1023914040567,-10549.66271483991,0.0
32040.0,-1.3766375682584815,-5.115579785786782,-11470.46707628153,0.0
32220.0,-1.358145552418621,-5.129268131962485,-12393.735340034777,0.0
32400.0,-1.3395655906677886,-5.143464139629301,-13319.558885168051,0.0
32580.0,-1.3208979398562408,-5.158172591996549,-14248.02995172743,0.0
32760.0,-1.3021430637026585,-5.173395323720772,-15179.24110999717,0.0
32940.0,-1.2833016398882207,-5.189131194083476,-16113.284724932197,0.0
33120.0,-1.2643745666352306,-5.205376068249266,-17050.252417217063,0.0
33300.0,-1.2453629687435426,-5.222122806759026,-17990.23452243369,0.0
33480.0,-1.2262682030599132,-5.239361263380015,-18933.319549842094,0.0
33660.0,-1.2070918633574819,-5.257078291401333,-19879.593642294334,0.0
33840.0,-1.187835784604729,-5.27525775842807,-20829.140038811387,0.0
34020.0,-1.1685020466056162,-5.293880569692611,-21782.038541356058,0.0
34200.0,-1.1490929769949942,-5.312924699865566,-22738.36498733186,0.0
34380.0,-1.1296111535758913,-5.332365233313118,-23698.190729328224,0.0
34560.0,-1.1100594059878968,-5.352174412711161,-24661.582123616234,0.0
34740.0,-1.0904408166984911,-5.372321695891673,-25628.600028876735,0.0
34920.0,-1.0707587213118883,-5.392773820760797,-26599.29931661368,0.0
35100.0,-1.0510167081927022,-5.41349487809434,-27573.728394670663,0.0
35280.0,-1.0312186174044689,-5.43444639198231,-28551.92874522748,0.0
35460.0,-1.0113685389658262,-5.455587407662276,-29533.93447860669,0.0
35640.0,-0.9914708104298633,-5.476874586449836,-30519.77190416766,0.0
35820.0,-0.9715300137948372,-5.4982623074456285,-31509.459119507876,0.0
36000.0,-0.9515509717570877,-5.519702775670093,-32503.005619128493,0.0
36180.0,-0.9315387433195393,-5.541146136251944,-33500.411923653846,0.0
36360.0,-0.9114986187716548,-5.562540594272355,-34501.66923062287,0.0
36540.0,-0.8914361140590784,-5.583832539845597,-35506.75908779508,0.0
36720.0,-0.8713569645634625,-5.604966677997435,-36515.65308983462,0.0
36900.0,-0.8512671183151135,-5.625886162886674,-37528.31259915422,0.0
37080.0,-0.831172728663074,-5.646532735899987,-38544.688491616216,0.0
37260.0,-0.8110801464291197,-5.666846867139559,-39564.72092770134,0.0
37440.0,-0.7909959115738231,-5.6867678998136215,-40588.339149667794,0.0
37620.0,-0.7709267444043748,-5.706234197033562,-41615.46130513384,0.0
37800.0,-0.7508795363551902,-5.72518329051777,-42645.99429742704,0.0
37980.0,-0.7308613403735179,-5.743552030701096,-43679.833662953235,0.0
38160.0,-0.7108793609432563,-5.7612767377504355,-44716.863475748316,0.0
38340.0,-0.6909409437809994,-5.778293352990495,-45756.956279286605,0.0
38520.0,-0.6710535652389628,-5.794537590250526,-46799.9730455317,0.0
38700.0,-0.6512248214499002,-5.809945086651442,-47845.763161128954,0.0
38880.0,-0.6314624172493791,-5.824451552363175,-48894.16444055433,0.0
39060.0,-0.611774154910885,-5.837992918875948,-49945.003165951995,0.0
39240.0,-0.5921679227291492,-5.850505485343099,-50998.09415331375,0.0
39420.0,-0.5726516834868353,-5.861926062570869,-52053.24084457651,0.0
39600.0,-0.5532334628393396,-5.87219211424804,-53110.23542514116,0.0
39780.0,-0.5339213376518782,-5.88124189502907,-54168.85896624639,0.0
39960.0,-0.5147234243223516,-5.889014585104935,-55228.88159156528,0.0
40140.0,-0.5147411187340435,-5.973946257945163,-56304.19191799541,0.0
40320.0,-0.5146882227320486,-6.05810063916946,-57394.65003304592,0.0
40500.0,-0.5144970110265337,-6.1411049739769386,-58500.048928361764,0.0
40680.0,-0.5141347190550701,-6.222721392631824,-59620.13877903549,0.0
40860.0,-0.5135822590087615,-6.302762874067446,-60754.636096367634,0.0
41040.0,-0.5128285758705705,-6.381071716028548,-61903.229005252775,0.0
41220.0,-0.5118681815860946,-6.457510552823661,-63065.58090476103,0.0
41400.0,-0.5106996178436048,-6.531956901331592,-64241.33314700072,0.0
41580.0,-0.5093243619040476,-6.604299327205475,-65430.107025897705,0.0
41760.0,-0.5077460195308957,-6.674434647362348,-66631.50526242293,0.0
41940.0,-0.5059697248839607,-6.7422658805473965,-67845.11312092147,0.0
42120.0,-0.504001693916785,-6.807700755939566,-69070.49925699059,0.0
42300.0,-0.5018488924087765,-6.870650641267399,-70307.21637241873,0.0
42480.0,-0.4995187897190299,-6.931029786642016,-71554.80173401428,0.0004812102809700902
42660.0,-0.4970191766322198,-6.988754805783603,-72812.77759905533,0.0029808233677802165
42840.0,-0.49435803109440096,-7.043744335417522,-74080.65157943049,0.005641968905599037
43020.0,-0.49154341969975246,-7.095918828023277,-75357.91696847467,0.00845658030024754
43200.0,-0.4885834258345718,-7.14520044400595,-76644.05304839574,0.011416574165428184
43380.0,-0.485486097667781,-7.191513017587906,-77938.52539156156,0.014513902332218998
43560.0,-0.4822594108886452,-7.234782076942179,-79240.78616541115,0.017740589111354788
43740.0,-0.4789112423753777,-7.274934903794548,-80550.27444809416,0.021088757624622312
43920.0,-0.4754493519399701,-7.311900621282537,-81866.41655992501,0.024550648060029878
44100.0,-0.47188137001536945,-7.345610301553732,-83188.62641420469,0.02811862998463055
44280.0,-0.46821478969127434,-7.375997086625447,-84516.30588979727,0.031785210308725664
44460.0,-0.4644569619095719,-7.402996317573005,-85848.8452269604,0.03554303809042808
44640.0,-0.4606150929336642,-7.426545668284285,-87185.62344725158,0.039384907066335795
44820.0,-0.4566962434330482,-7.446585280906001,-88526.00879781466,0.04330375656695179
45000.0,-0.4527073286945941,-7.4630579007818465,-89869.3592199554,0.047292671305405876
45180.0,-0.44865511959927756,-7.475909009194244,-91215.02284161036,0.05134488040072244
45360.0,-0.4445462440983771,-7.485086952612662,-92562.33849308065,0.05545375590162288
45540.0,-0.4403871889943971,-7.490543067448968,-93910.63624522147,0.059612811005602895
45720.0,-0.4361843018852108,-7.492231799548656,-95259.23796914023,0.06381569811478921
45900.0,-0.4319437931696683,-7.490110817822757,-96607.45791634833,0.0680562068303317
46080.0,-0.42767173804256203,-7.48414112156023,-97954.60331822917,0.07232826195743797
46260.0,-0.42337407842891017,-7.47428714106709,-99299.97500362125,0.07662592157108983
46440.0,-0.41887904846193635,-7.4595354760533334,-100642.69138931084,0.08112095153806365
46620.0,-0.4142696993930676,-7.440268391949411,-101981.93969986173,0.08573030060693237
46800.0,-0.40963140875931325,-7.416897457099109,-103316.98124213958,0.09036859124068675
46980.0,-0.4050220268181791,-7.389695413759617,-104647.1264166163,0.09497797318182088
47160.0,-0.40239211229719424,-7.369681416799416,-105973.6690716402,0.09760788770280576
47340.0,-0.39984142962715485,-7.346176526024429,-107295.98084632459,0.10015857037284515
47520.0,-0.3973721231080505,-7.319158916274447,-108613.429451254,0.10262787689194952
47700.0,-0.39498518722381654,-7.2886039734247,-109925.37816647044,0.10501481277618346
47880.0,-0.3926809489051188,-7.254486961823291,-111231.18581959864,0.10731905109488121
48060.0,-0.39045928679689784,-7.216784254823279,-112530.20698546684,0.10954071320310216
48240.0,-0.3883197673049521,-7.175474119408892,-113821.79232696044,0.1116802326950479
48420.0,-0.38626174162101706,-7.130537294865219,-115105.28904003618,0.11373825837898294
48600.0,-0.38428441909232847,-7.081957446514883,-116380.04138040886,0.11571558090767153
48780.0,-0.3823869237400516,-7.029721528789068,-117645.39125559089,0.11761307625994838
48960.0,-0.38056833776958404,-6.973820076127773,-118900.67886929389,0.11943166223041596
49140.0,-0.3788277347033489,-6.914247434064203,-120145.24340742544,0.1211722652966511
49320.0,-0.37716420414415064,-6.851001939896281,-121378.42375660677,0.12283579585584936
49500.0,-0.37557686977882027,-6.7840860605563496,-122599.55924750691,0.12442313022117973
49680.0,-0.37389966172782846,-6.712499449569654,-123807.80914842946,0.12610033827217154
49860.0,-0.3723178862655237,-6.637379678400364,-125002.53749054152,0.1276821137344763
