t(s),Tsurface(蚓),Flux(W),E(J),f_liq
0.0,0.0,9.600000000000009,0.0,0.5
180.0,-0.009685324526384072,9.659800110089,1738.76401981602,0.4903146754736159
360.0,-0.0188021428071667,9.719470776144812,3488.268759522086,0.4811978571928333
540.0,-0.027406771358923228,9.778825845875133,5248.45741177961,0.4725932286410768
720.0,-0.03555003919646082,9.83768889888723,7019.2414135793115,0.4644499608035392
900.0,-0.04327723336975608,9.895894011269286,8800.502335607784,0.4567227666302439
1080.0,-0.05062854125999988,9.953285281992567,10592.093686366446,0.4493714587400001
1260.0,-0.057639593026494594,10.009716056083976,12393.842576461562,0.4423604069735054
1440.0,-0.06434198019209324,10.065048146458688,14205.551242824125,0.43565801980790675
1620.0,-0.07076372249877579,10.119151128537696,16026.998445960911,0.42923627750122423
1800.0,-0.07692968123080213,10.171901718688163,17857.94075532478,0.4230703187691979
1980.0,-0.08286192346659563,10.223183231566543,19698.11373700676,0.4171380765334044
2160.0,-0.08858004276190627,10.272885108111264,21547.233056466786,0.4114199572380937
2340.0,-0.0941014415006938,10.320902505863923,23404.995507522293,0.40589855849930623
2520.0,-0.09944157960616802,10.367135944004962,25271.079977443187,0.400558420393832
2700.0,-0.10461419374654772,10.411490996311876,27145.148356779326,0.39538580625345227
2880.0,-0.10963149066069815,10.453878026028972,29026.84640146454,0.39036850933930184
3060.0,-0.11450431777778734,10.494211957337034,30915.804553785205,0.38549568222221264
3240.0,-0.11924231390933103,10.532412078731785,32811.638727956924,0.38075768609066896
3420.0,-0.12385404244561844,10.568401874167296,34713.95106530704,0.37614595755438157
3600.0,-0.12834710918558798,10.60210887830383,36622.33066340173,0.371652890814412
3780.0,-0.13272826666433768,10.633464552623893,38536.35428287403,0.3672717333356623
3960.0,-0.13700350661083838,10.662404179557777,40455.58703519443,0.3629964933891616
4140.0,-0.14117814196586811,10.688866772089627,42379.583054170565,0.3588218580341319
4320.0,-0.14525687971304166,10.712794996609016,44307.88615356019,0.3547431202869583
4500.0,-0.14924388562086502,10.734135107031621,46240.030472825885,0.350756114379135
4680.0,-0.15314284185820443,10.752836888441282,48175.54111274532,0.3468571581417956
4860.0,-0.15695699832697527,10.768853608708499,50113.93476231285,0.3430430016730247
5040.0,-0.16068921845209447,10.782141976719949,52054.72031812244,0.3393107815479055
5220.0,-0.16434202007793453,10.792662106012413,53997.39949720467,0.3356579799220655
5400.0,-0.16791761204103597,10.80037748274558,55941.467444098875,0.33208238795896405
5580.0,-0.17141792691925825,10.80525493707325,57886.41333277206,0.3285820730807417
5760.0,-0.1748446503966259,10.807264617083796,59831.72096384715,0.3251553496033741
5940.0,-0.1781992476297759,10.80637996457965,61776.869357471485,0.3218007523702241
6120.0,-0.18148298695518175,10.802577692052756,63721.33334204098,0.3185170130448183
6300.0,-0.18469696123538565,10.795837760292715,65664.58413889367,0.31530303876461435
6480.0,-0.18784210710659507,10.786143356132243,67606.08994299747,0.3121578928934049
6660.0,-0.190919222358552,10.773480869898563,69545.3164995792,0.30908077764144803
6840.0,-0.1939289816500114,10.757839872193808,71481.72767657408,0.3060710183499886
7020.0,-0.19687195073898947,10.739213089677962,73414.78603271612,0.30312804926101056
7200.0,-0.19974859938572806,10.717596379571475,75343.95338103898,0.3002514006142719
7380.0,-0.20255931306771469,10.692988702635951,77268.69134751345,0.2974406869322853
7560.0,-0.205304403629758,10.665392094425275,79188.46192451,0.294695596370242
7740.0,-0.20798411897777563,10.634811634633307,81102.728018744,0.29201588102222437
7920.0,-0.21059865191235277,10.601255414392043,83010.95399333457,0.2894013480876472
8100.0,-0.21314814818706002,10.56473450140055,84912.60620358666,0.28685185181294
8280.0,-0.21563271386678529,10.525262902788176,86807.15352608853,0.2843672861332147
8460.0,-0.21805242205278194,10.482857525636833,88694.06788070317,0.28194757794721803
8640.0,-0.22040731903360525,10.437538135106003,90572.82474502224,0.2795926809663948
8820.0,-0.22269742991448585,10.389327310121423,92442.9036608441,0.2773025700855142
9000.0,-0.22492276377185397,10.338250396603827,94303.78873223279,0.27507723622814606
9180.0,-0.22708331837459308,10.284335458228343,96154.9691147139,0.27291668162540694
9360.0,-0.22917908450907226,10.22761322471808,97995.93949516315,0.27082091549092774
9540.0,-0.23121004994101205,10.168117037686374,99826.20056194671,0.268789950058988
9720.0,-0.23317620304371967,10.105882794053265,101645.25946487629,0.26682379695628033
9900.0,-0.23507753611911894,10.04094888707141,103452.63026454914,0.26492246388088103
10080.0,-0.23691404843525513,9.973356145004134,105247.83437064989,0.2630859515647449
10260.0,-0.23868574900152872,9.90314776750812,107030.40096880135,0.2613142509984713
10440.0,-0.2403926591007701,9.830369259778179,108799.86743556142,0.2596073408992299
10620.0,-0.24203481459536694,9.755068364519596,110555.77974117495,0.2579651854046331
10800.0,-0.24361226802297942,9.677294991818844,112297.69283970234,0.2563877319770206
10980.0,-0.24512509049589176,9.597101146988596,114025.17104616029,0.25487490950410824
11160.0,-0.24657337341672916,9.514540856467923,115737.78840032451,0.25342662658327086
11340.0,-0.24795723002210437,9.429670091863086,117435.12901685986,0.25204276997789565
11520.0,-0.24927679676471914,9.3425466922178,119116.78742145907,0.25072320323528086
11700.0,-0.2505322345435278,9.253230284605756,120782.36887268811,0.2494677654564722
11880.0,-0.2517237297907521,9.16178220314108,122431.4896692535,0.24827627020924792
12060.0,-0.2528514954238131,9.068265406505253,124063.77744242444,0.24714850457618692
12240.0,-0.2539157716695956,8.972744394091425,125678.8714333609,0.2460842283304044
12420.0,-0.25491682676789246,8.875285120869586,127276.42275511743,0.24508317323210754
12600.0,-0.25585495756035864,8.775954911077351,128856.09463911135,0.24414504243964136
12780.0,-0.2567304899708546,8.67482237084315,130417.56266586312,0.24326951002914537
12960.0,-0.2575437793826493,8.571957299850041,131960.51497983612,0.24245622061735073
13140.0,-0.2582952109175927,8.467430602149477,133484.65248822302,0.24170478908240728
13320.0,-0.25898519962204364,8.361314196234973,134989.6890435453,0.24101480037795636
13500.0,-0.2596141905640511,8.253680924486828,136475.35160995295,0.2403858094359489
13680.0,-0.26018265884603115,8.14460446209954,137941.38041313086,0.23981734115396885
13860.0,-0.2606911095369454,8.034159225603537,139387.52907373948,0.2393088904630546
14040.0,-0.26114007752778945,7.922420281093537,140813.56472433632,0.23885992247221055
14220.0,-0.261530127314008,7.809463252275393,142219.2681097459,0.238469872685992
14400.0,-0.261861852708291,7.695364228443904,143604.4336708658,0.238138147291709
14580.0,-0.2621358764870595,7.5801996725026095,144968.86961191628,0.2378641235129405
14760.0,-0.26235284997381075,7.464046329137434,146312.39795116102,0.23764715002618925
14940.0,-0.26251345256238034,7.346981133254782,147634.85455514689,0.23748654743761966
15120.0,-0.2626183911830656,7.229081118793985,148936.0891565298,0.23738160881693438
15300.0,-0.2626683997144611,7.1104233280234155,150215.96535557404,0.2373316002855389
15480.0,-0.26266423834376973,6.991084721428608,151474.3606054312,0.23733576165623027
15660.0,-0.262606692878274,6.871142088299839,152711.16618132516,0.23739330712172602
15840.0,-0.26249657401058013,6.750671958124735,153926.2871337876,0.23750342598941987
16020.0,-0.262334716540186,6.629750512891296,155119.64222610806,0.23766528345981403
16200.0,-0.26212197855386093,6.508453500404551,156291.16385618088,0.23787802144613907
16380.0,-0.2618592405672768,6.386856148718815,157440.79796295028,0.23814075943272323
16560.0,-0.26154740463027887,6.265033081785933,158568.50391767174,0.23845259536972113
16740.0,-0.2611873933981396,6.1430582364184865,159674.25440022707,0.23881260660186038
16920.0,-0.2607801491710986,6.021004780664516,160758.0352607467,0.2392198508289014
17100.0,-0.26032663290445435,5.8989450336895,161819.8453668108,0.23967336709554565
17280.0,-0.25982782319143605,5.776950387258136,162859.69643651726,0.24017217680856395
17460.0,-0.2592847152210534,5.6550912289076605,163877.61285772064,0.2407152847789466
17640.0,-0.2586983197130893,5.53343686690133,164873.6314937629,0.24130168028691068
17820.0,-0.2580696618323704,5.4120554570492825,165847.80147603177,0.2419303381676296
18000.0,-0.2573997800844257,5.291013931481247,166800.1839836984,0.2426002199155743
18180.0,-0.2566897251946128,5.1703779294532985,167730.85201099998,0.2433102748053872
18360.0,-0.25594055897276713,5.050211730268562,168639.89012244833,0.24405944102723287
18540.0,-0.2551533531654053,4.930578188389315,169527.3941963584,0.24484664683459467
18720.0,-0.25432918829748613,4.811538670814953,170393.4711571051,0.24567081170251387
18900.0,-0.25346915250571167,4.693152996798204,171238.23869652877,0.24653084749428833
19080.0,-0.2525743403653244,4.575479379968749,172061.82498492315,0.2474256596346756
19260.0,-0.2516458517123317,4.45857437293092,172864.36837205073,0.24835414828766827
19440.0,-0.25068479046306824,4.342492814399201,173646.0170786426,0.24931520953693176
19620.0,-0.24969226343297704,4.227287778932166,174406.9288788504,0.250307736567023
19800.0,-0.24866937915647008,4.113010529322724,175147.27077412847,0.2513306208435299
19980.0,-0.24761724670970023,3.9997104716991627,175867.21865903432,0.2523827532902998
20160.0,-0.24653697453805284,3.8874351133887903,176566.9569794443,0.25346302546194716
20340.0,-0.24542966929013738,3.7762300235921114,177246.6783836909,0.2545703307098626
20520.0,-0.24429643466003276,3.666138796912895,177906.5833671352,0.25570356533996724
20700.0,-0.2431383702395123,3.5572030197855016,178546.8799106966,0.2568616297604877
20880.0,-0.2419565703819448,3.449462239837989,179167.78311386742,0.2580434296180552
21060.0,-0.2407521230795381,3.3429539382256315,179769.51482274802,0.2592478769204619
21240.0,-0.2395261088555623,3.2377135049661683,180352.30325364193,0.2604738911444377
21420.0,-0.23827959967315576,3.133774217304457,180916.38261275674,0.26172040032684424
21600.0,-0.23701365786228504,3.0311672211305187,181461.99271256023,0.262986342137715
21780.0,-0.23572933506639818,2.929921515471357,181989.37858534508,0.26427066493360185
21960.0,-0.2344276712102693,2.830063940073087,182498.79009455824,0.2655723287897307
22140.0,-0.23310969349050437,2.7316191660860856,182990.48154445374,0.26689030650949563
22320.0,-0.23177641539013225,2.634609689862202,183464.71128862893,0.2682235846098677
22500.0,-0.230428835718673,2.5390558298688832,183921.74133800532,0.269571164281327
22680.0,-0.2290679376790302,2.4449757267213803,184361.83696881516,0.2709320623209698
22860.0,-0.22769468796251563,2.3523853463300832,184785.26633115456,0.27230531203748437
23040.0,-0.2263100358732699,2.261298486155992,185192.30005866263,0.2736899641267301
23220.0,-0.22491491248330064,2.171726784563434,185583.21087988405,0.27508508751669936
23400.0,-0.22351022981931168,2.0836797332548276,185958.2732318699,0.2764897701806883
23580.0,-0.2220968800824525,1.9971646927683464,186317.76287656822,0.27790311991754746
23760.0,-0.22067573490206777,1.9121869110152199,186661.95652055094,0.27932426509793223
23940.0,-0.2192476446244774,1.8287495448290632,186991.13143862018,0.28075235537552257
24120.0,-0.21781343763776692,1.7468536844957028,187305.56510182942,0.28218656236223305
24300.0,-0.21637391973351744,1.6664983812276932,187605.5348104504,0.28362608026648256
24480.0,-0.21492987350634774,1.5876806775434493,187891.31733240822,0.28507012649365226
24660.0,-0.21348205779209134,1.5103956405069618,188163.18854769948,0.28651794220790866
24840.0,-0.21203120714537035,1.4346363977797134,188421.42309929983,0.2879687928546296
25020.0,-0.2105780313572767,1.3603941764323928,188666.29405105766,0.2894219686427233
25200.0,-0.20912321501380715,1.2876583444597833,188898.07255306042,0.29087678498619285
25380.0,-0.20766741709564523,1.2164164549381677,189117.0275149493,0.29233258290435477
25560.0,-0.20621127061981886,1.1466542927605567,189323.42528764618,0.29378872938018114
25740.0,-0.20475538232370305,1.0783559238809008,189517.52935394476,0.29524461767629695
25920.0,-0.2033003323917735,1.0115037469946053,189699.6000284038,0.2966996676082265
26100.0,-0.20184667422545727,0.9460785475786891,189869.89416696798,0.29815332577454273
26280.0,-0.2003949342563568,0.8820595542110368,190028.66488672595,0.2996050657436432
26460.0,-0.1989456118030656,0.8194244970844794,190176.16129620114,0.3010543881969344
26640.0,-0.1974991789717224,0.7581496686276696,190312.62823655413,0.3025008210282776
26820.0,-0.19605608060038973,0.6982099861411278,190438.30603405953,0.3039439193996103
27000.0,-0.19461673424727197,0.6395790563532499,190553.4302642031,0.305383265752728
27180.0,-0.19318153022272372,0.5822292417977204,190658.2315277267,0.3068184697772763
27360.0,-0.19175083166493112,0.5261317289103691,190752.93523893054,0.3082491683350689
27540.0,-0.19032497465908016,0.4712565977403597,190837.7614265238,0.30967502534091984
27720.0,-0.18890426839975866,0.41757289316748253,190912.92454729395,0.31109573160024134
27900.0,-0.1874889953962719,0.3650486975144016,190978.63331284653,0.3125110046037281
28080.0,-0.18607941172048076,0.3136512044398947,191035.0905296457,0.31392058827951924
28260.0,-0.1846757472967069,0.2633467939964665,191082.49295256508,0.3153242527032931
28440.0,-0.1832782062331787,0.21410110873321095,191121.03115213706,0.3167217937668213
28620.0,-0.18188696719442626,0.16587913072248384,191150.8893956671,0.31811303280557374
28800.0,-0.18050218381396613,0.11864525938676476,191172.24554235672,0.3194978161860339
28980.0,-0.17912398514654995,0.0723633900001266,191185.27095255675,0.3208760148534501
29160.0,-0.1777524761591855,0.026996992736935215,191190.1304112494,0.3222475238408145
29340.0,-0.1763877382600741,-0.0174908078612309,191186.9820658344,0.3236122617399259
29520.0,-0.1750298298645431,-0.061137153130762796,191175.97737827085,0.3249701701354569
29700.0,-0.17367878699699144,-0.10397937037493697,191157.26109160337,0.32632121300300854
29880.0,-0.17233462392780124,-0.14605489292904092,191130.97121087616,0.32766537607219876
30060.0,-0.17099733384411092,-0.18740118033504882,191097.23899841585,0.3290026661558891
30240.0,-0.16966688955328374,-0.22805563875966522,191056.18898343912,0.33033311044671626
30420.0,-0.16834324421784994,-0.2680555417898234,191007.93898591696,0.33165675578215004
30600.0,-0.16702633212064275,-0.3074379517398923,190952.60015460377,0.3329736678793572
30780.0,-0.1657160694587954,-0.3462396416045404,190890.27701911496,0.3342839305412046
30960.0,-0.1644123551652147,-0.38449701779091017,190821.0675559126,0.3355876448347853
31140.0,-0.16311507175609377,-0.422246043763004,190745.06326803524,0.33688492824390626
31320.0,-0.16182408620298117,-0.45952216473032426,190662.34927838377,0.33817591379701883
31500.0,-0.160539250827876,-0.49636023351162883,190573.00443635168,0.339460749172124
31680.0,-0.15926040421977525,-0.5327944377032559,190477.10143756508,0.3407395957802247
31860.0,-0.15798737217105865,-0.5688582282798046,190374.70695647472,0.3420126278289414
32040.0,-0.15671996863205806,-0.6045842497530535,190265.88179151918,0.34328003136794194
32220.0,-0.1554579966821215,-0.6400042720127969,190150.68102255688,0.3445420033178785
32400.0,-0.15420124951544986,-0.675149123970911,190029.15418024213,0.3457987504845501
32580.0,-0.15294951143995375,-0.7100486291272121,189901.34542699924,0.3470504885600463
32760.0,-0.15170255888735018,-0.7447315431728669,189767.29374922812,0.3482974411126498
32940.0,-0.15046016143269542,-0.7792254937438187,189627.03316035424,0.3495398385673046
33120.0,-0.1492220828215284,-0.8135569224333812,189480.59291431622,0.3507779171784716
33300.0,-0.14798808200278193,-0.8477510291695196,189327.9977290657,0.3520119179972181
33480.0,-0.14675791416560374,-0.8818317190583806,189169.2680196352,0.35324208583439626
33660.0,-0.14553133177821834,-0.9158215517916438,189004.4201403127,0.3544686682217817
33840.0,-0.14430808562695302,-0.94974169371088,188833.46663544473,0.355691914373047
34020.0,-0.14308792585354593,-0.983611872617612,188656.41649837355,0.3569120741464541
34200.0,-0.14187060298885507,-1.0174503354130262,188473.2754379992,0.35812939701114493
34380.0,-0.140655868981087,-1.0512738086463804,188284.04615244284,0.359344131018913
34560.0,-0.13944347821667213,-1.0850974620459923,188088.72860927455,0.36055652178332787
34740.0,-0.13823318853192249,-1.1189348751014954,187887.3203317563,0.36176681146807754
34920.0,-0.1370247622136203,-1.1527980067604595,187679.81669053942,0.3629752377863797
35100.0,-0.1358179669867037,-1.1866971682970247,187466.21120024595,0.3641820330132963
35280.0,-0.13461257698723453,-1.2206409994042613,187246.4958203532,0.3653874230127655
35460.0,-0.13340837371885886,-1.2546364475562457,187020.66125979307,0.36659162628114117
35640.0,-0.1322051469909966,-1.288688750679704,186788.69728467072,0.3677948530090034
35820.0,-0.1310026958370279,-1.3228014231690224,186550.5930285003,0.3689973041629721
36000.0,-0.12980082941077814,-1.3569762452722078,186306.3373043513,0.37019917058922186
36180.0,-0.12859936785964146,-1.3912132558690125,186055.9189182949,0.37140063214035857
36360.0,-0.12739814317272277,-1.4255107486562106,185799.32698353677,0.3726018568272772
36540.0,-0.12619700000242234,-1.4598652717484235,185536.55123462205,0.37380299999757766
36720.0,-0.12499579645793567,-1.4942716306965829,185267.58234109666,0.3750042035420643
36900.0,-0.12379440486918994,-1.5287228949195641,184992.41222001115,0.3762055951308101
37080.0,-0.12259271251979324,-1.5632104075380115,184711.0343466543,0.37740728748020674
37260.0,-0.12139062234762776,-1.5977237985929258,184423.4440629076,0.37860937765237224
37440.0,-0.12018805361177852,-1.6322510016251568,184129.63888261508,0.37981194638822147
37620.0,-0.11898494252455008,-1.6667782735853576,183829.6187933697,0.38101505747544995
37800.0,-0.11778124284738802,-1.7012902180377574,183523.3865541229,0.382218757152612
37980.0,-0.11657692644958909,-1.735769811614636,183210.94798803228,0.38342307355041094
38160.0,-0.11537198382875245,-1.7701984336722507,182892.31226997127,0.38462801617124753
38340.0,-0.1141664245919967,-1.8045558990927395,182567.4922081346,0.3858335754080033
38520.0,-0.11296027789703811,-1.8388204941704915,182236.5045191839,0.3870397221029619
38700.0,-0.11175359285230345,-1.87296901551562,181899.37009639107,0.38824640714769654
38880.0,-0.11054643887532553,-1.9069768119012822,181556.11427024883,0.38945356112467444
39060.0,-0.10933890600874784,-1.940817828976085,181206.76706103314,0.39066109399125215
39240.0,-0.10813110519334493,-1.974464656757176,180851.36342281685,0.3918688948066551
39420.0,-0.10692316849754611,-2.0078885798144936,180489.94347845024,0.39307683150245387
39600.0,-0.10571524930302982,-2.0410596300514015,180122.55274504097,0.39428475069697017
39780.0,-0.10450752244604154,-2.073946641982097,179749.2423494842,0.39549247755395844
39960.0,-0.10330018431416867,-2.106517310401451,179370.06923361195,0.39669981568583135
40140.0,-0.10209345289839133,-2.138738250338448,178985.09634855104,0.39790654710160867
40320.0,-0.10088756780031032,-2.170575059180162,178594.3928378986,0.39911243219968967
40500.0,-0.09968279019454007,-2.2019923808491577,178198.03420934576,0.40031720980545993
40680.0,-0.09847940274633527,-2.2329539719134774,177796.10249440133,0.40152059725366473
40860.0,-0.09727770948460657,-2.26342276950486,177388.68639589046,0.40272229051539343
41040.0,-0.09607803563056234,-2.2933609609175307,176975.8814229253,0.40392196436943767
41220.0,-0.09488072738229684,-2.322730054757041,176557.79001306903,0.40511927261770314
41400.0,-0.09368615165572684,-2.3514909535057984,176134.52164143798,0.40631384834427314
41580.0,-0.09249469578236072,-2.379604027369658,175706.19291651144,0.4075053042176393
41760.0,-0.09130676716446232,-2.4070291892676448,175272.92766244325,0.4086932328355377
41940.0,-0.09012279288825217,-2.433725970825227,174834.85698769471,0.4098772071117478
