t(s),Tsurface(蚓),Flux(W),E(J),f_liq
0.0,0.0,9.600000000000009,0.0,0.0
180.0,-0.3657241679141521,8.797850877639197,1583.6131579750554,0.0
360.0,-0.5443620030150422,8.43612256936841,3102.115220461369,0.0
540.0,-0.670710845569639,8.194517623016933,4577.128392604417,0.0
720.0,-0.7727907630119386,8.0066610497951,6018.327381567535,0.0
900.0,-0.8603204351471377,7.849673896597752,7431.26868295513,0.0
1080.0,-0.9378138581872225,7.713011433011206,8819.610740897147,0.0
1260.0,-1.0077373276975718,7.590968244916045,10185.985024982036,0.0
1440.0,-1.0716011769523694,7.480089304081893,11532.401099716777,0.0
1620.0,-1.1304212035879744,7.378075472935208,12860.454684845114,0.0
1800.0,-1.184935698725461,7.283268829168315,14171.44307409541,0.0
1980.0,-1.2357144169709262,7.194395008487837,15466.43417562322,0.0
2160.0,-1.2832162155368296,7.110427989865449,16746.311213799003,0.0
2340.0,-1.327821240155842,7.030515684160708,18011.80403694793,0.0
2520.0,-1.3698500787093517,6.953936595030517,19263.512624053423,0.0
2700.0,-1.4095760227319984,6.880072789289542,20501.92572612554,0.0
2880.0,-1.4472335335458664,6.8083917113490005,21727.43623416836,0.0
3060.0,-1.4830245037239427,6.738433010061492,22940.354175979428,0.0
3240.0,-1.5171231494828115,6.669798378060744,24140.91788403036,0.0
3420.0,-1.5496799870328999,6.6021433351056436,25329.303684349376,0.0
3600.0,-1.5808251498064883,6.53517036456532,26505.634349971133,0.0
3780.0,-1.6106712012929714,6.46862305985473,27669.986500744984,0.0
3960.0,-1.6393155436120561,6.402281068255811,28822.39709303103,0.0
4140.0,-1.6668424916681566,6.335955690303915,29962.869117285736,0.0
4320.0,-1.6933250650150644,6.269486032793184,31091.37660318851,0.0
4500.0,-1.718826538478281,6.2027356372132,32207.869017886886,0.0
4680.0,-1.743401785108877,6.135589520610062,33312.275131596696,0.0
4860.0,-1.7670984396234517,6.067951576328521,34404.50641533583,0.0
5040.0,-1.7899579063086524,5.999742289842634,35484.460027507506,0.0
5220.0,-1.812016232001933,5.930896730970413,36552.02143908218,0.0
5400.0,-1.8333048619615717,5.861362788759951,37607.06674105897,0.0
5580.0,-1.8538512940670044,5.791099619546735,38649.46467257738,0.0
5760.0,-1.8736796447564004,5.720076282301644,39679.07840339167,0.0
5940.0,-1.8928111383518684,5.648270538531564,40695.76710032735,0.0
6120.0,-1.911264529899917,5.575667796743555,41699.38730374119,0.0
6300.0,-1.929056470331734,5.5022601838932,42689.79413684196,0.0
6480.0,-1.9462018215970502,5.42804572835751,43666.842367946316,0.0
6660.0,-1.9627139284238069,5.353027640837766,44630.387343297116,0.0
6840.0,-1.9786048524840512,5.277213681239415,45580.28580592021,0.0
7020.0,-1.993885573987606,5.2006156010226805,46516.39661410429,0.0
7200.0,-2.008566165064629,5.123248651790561,47438.58137142659,0.0
7380.0,-2.0226559387234295,5.045131152002613,48346.70497878706,0.0
7560.0,-2.0361635766699924,4.966284104689542,49240.63611763118,0.0
7740.0,-2.0490972388407656,4.886730859912687,50120.24767241546,0.0
7920.0,-2.061464657122245,4.806496816476615,50985.41709938125,0.0
8100.0,-2.0732732154021987,4.725609158075201,51836.02674783479,0.0
8280.0,-2.08453001781182,4.644096619642893,52671.96413937051,0.0
8460.0,-2.0952419467699674,4.561989280201949,53493.12220980686,0.0
8640.0,-2.1054157122252364,4.4793183789533195,54299.39951801846,0.0
8820.0,-2.1150578933044564,4.396116151759401,55090.70042533515,0.0
9000.0,-2.124174973413911,4.3124156855189995,55866.935248728565,0.0
9180.0,-2.132773369698623,4.228250788243794,56628.02039061245,0.0
9360.0,-2.1408594576428683,4.143655872916398,57373.87844773741,0.0
9540.0,-2.1484395914890477,4.05866585344813,58104.43830135807,0.0
9720.0,-2.155520121060224,3.9733160512625707,58819.63519058533,0.0
9900.0,-2.1621074054919083,3.8876421112139026,59519.410770603834,0.0
10080.0,-2.1682078243097402,3.801679925708855,60203.713157231425,0.0
10260.0,-2.1738277862299196,3.7154655660410896,60872.49695911882,0.0
10440.0,-2.1789737360074732,3.6290352200698037,61525.723298731384,0.0
10620.0,-2.183652159612652,3.542425135481209,62163.359823118,0.0
10800.0,-2.187869587976983,3.455671567966034,62785.38070535188,0.0
10980.0,-2.1916325995169457,3.3688107337278033,63391.76663742289,0.0
11160.0,-2.1949478216142295,3.2818787658089863,63982.504815268505,0.0
11340.0,-2.1978219312064606,3.19491167378459,64557.58891654973,0.0
11520.0,-2.2002616546205975,3.107945306427985,65117.01907170677,0.0
11700.0,-2.202273766762459,3.0210153170016745,65660.80182876707,0.0
11880.0,-2.203865089759692,2.934157130867741,66188.95011232326,0.0
12060.0,-2.205042491141512,2.847405915149489,66701.48317705018,0.0
12240.0,-2.2058128816264957,2.7607965502079814,67198.42655608761,0.0
12420.0,-2.2061832125793304,2.674363602725233,67679.81200457815,0.0
12600.0,-2.206160473188464,2.5881413002105402,68145.67743861605,0.0
12780.0,-2.2057516874088647,2.5021635067679138,68596.06686983428,0.0
12960.0,-2.2049639107074976,2.416463699981717,69031.03033583099,0.0
13140.0,-2.2038042266433893,2.331074948793941,69450.6238266139,0.0
13320.0,-2.202279743309244,2.24602989226154,69854.90920722098,0.0
13500.0,-2.2003975896573866,2.1613607190948017,70243.95413665804,0.0
13680.0,-2.198164911729184,2.077099147889259,70617.8319832781,0.0
13860.0,-2.195588868804009,1.9932764079738057,70976.62173671338,0.0
14040.0,-2.192676629481188,1.9099232208063406,71320.40791645853,0.0
14220.0,-2.1894353677061393,1.8270697818564603,71649.28047719269,0.0
14400.0,-2.18587225874996,1.7447457429217517,71963.3347109186,0.0
14580.0,-2.1819944751501725,1.662980194830545,72262.6711459881,0.0
14760.0,-2.1778091826189363,1.5818016504898083,72547.39544307627,0.0
14940.0,-2.173323535923917,1.5012380282420872,72817.61828815985,0.0
15120.0,-2.168544674746062,1.4213166355001208,73073.45528254987,0.0
15300.0,-2.163479719517744,1.3420641526320638,73315.02683002363,0.0
15480.0,-2.158135767244137,1.2635066170744644,73542.45802109705,0.0
15660.0,-2.1525198873101266,1.1856694076536483,73755.87851447471,0.0
15840.0,-2.1466391172747463,1.1085772290998657,73955.42241571269,0.0
16020.0,-2.1405004586547607,1.0322540967417608,74141.22815312621,0.0
16200.0,-2.1341108726988582,0.9567233213718904,74313.43835097316,0.0
16380.0,-2.1274772761537677,0.882007494277032,74472.19969994303,0.0
16560.0,-2.120606537023536,0.8081284724299074,74617.6628249804,0.0
16740.0,-2.1135054703232203,0.7351073638417115,74749.98215047191,0.0
16920.0,-2.106180833828271,0.6629645130776248,74869.31576282589,0.0
17100.0,-2.0986393238209864,0.5917194869400433,74975.8252704751,0.0
17280.0,-2.0908875708355485,0.5213910603270014,75069.67566133397,0.0
17460.0,-2.0829321354033166,0.45199720227573886,75151.0351577436,0.0
17640.0,-2.074779503800274,0.3835550622039288,75220.0750689403,0.0
17820.0,-2.066436083798738,0.3160809563636493,75276.96964108576,0.0
18000.0,-2.0579082004257208,0.24959035452562592,75321.89590490038,0.0
18180.0,-2.049202091730612,0.18409786691382798,75355.03352094487,0.0
18360.0,-2.040323904565149,0.11961723141291657,75376.5646225992,0.0
18540.0,-2.031279690379011,0.056161301073516454,75386.67365679242,0.0
18720.0,-2.0220754010346638,-0.00625796805721251,75385.54722254213,0.0
18900.0,-2.0127168846455,-0.0676295287498859,75373.37390736715,0.0
19080.0,-2.0032098814416615,-0.12794325401978537,75350.34412164359,0.0
19260.0,-1.9935600196683518,-0.18718994813169587,75316.64993097988,0.0
19440.0,-1.9837728115218212,-0.24536135714564933,75272.48488669367,0.0
19620.0,-1.9738536491286505,-0.30245017896428533,75218.0438544801,0.0
19800.0,-1.9638078005743551,-0.3584500728402226,75153.52284136886,0.0
19980.0,-1.953640405987771,-0.41335566829962633,75079.11882107492,0.0
20160.0,-1.9433564736881153,-0.4671625734360319,74995.02955785644,0.0
20340.0,-1.9329608764020403,-0.5198673825264021,74901.45342900169,0.0
20520.0,-1.9224583475584398,-0.5714676829194035,74798.5892460762,0.0
20700.0,-1.9118534776691996,-0.6219620611440453,74686.63607507027,0.0
20880.0,-1.9011507108044932,-0.671350108184981,74565.79305559698,0.0
21060.0,-1.8903543411716854,-0.7196324238692523,74436.25921930051,0.0
21240.0,-1.87946850980726,-0.7668106203076349,74298.23330764513,0.0
21420.0,-1.8684972013916503,-0.8128873243325508,74151.91358926527,0.0
21600.0,-1.8574442411971872,-0.8578661788732505,73997.49767706808,0.0
21780.0,-1.8463132921797836,-0.9017518432080871,73835.18234529062,0.0
21960.0,-1.835107852225299,-0.9445499920329422,73665.1633467247,0.0
22140.0,-1.8238312515618793,-0.9862673132843571,73487.63523033352,0.0
22320.0,-1.8124866503498425,-1.026911504655669,73302.7911594955,0.0
22500.0,-1.8010770364609654,-1.0664912687444856,73110.82273112149,0.0
22680.0,-1.789605223459278,-1.1050163067701197,72911.91979590287,0.0
22860.0,-1.7780738487956362,-1.1424973108002099,72706.27027995883,0.0
23040.0,-1.7664853722285532,-1.1789459544267373,72494.06000816202,0.0
23220.0,-1.7548420744838573,-1.2143748818328997,72275.4725294321,0.0
23400.0,-1.7431460561658236,-1.2487976951939361,72050.68894429719,0.0
23580.0,-1.7313992369324607,-1.282228940357114,71819.88773503291,0.0
23760.0,-1.7196033549475853,-1.3146840907483717,71583.2445986982,0.0
23940.0,-1.7077599666222425,-1.3461795294561019,71340.9322833961,0.0
24120.0,-1.6958704466578776,-1.3767325294456838,71093.12042809588,0.0
24300.0,-1.6839359884034366,-1.4063612318621779,70839.97540636068,0.0
24480.0,-1.6719576045383142,-1.4350846223826352,70581.6601743318,0.0
24660.0,-1.6599361280926979,-1.4629225055841455,70318.33412332665,0.0
24840.0,-1.6478722138164366,-1.4898954772987423,70050.15293741289,0.0
25020.0,-1.6357663399070652,-1.5160248949318138,69777.26845632517,0.0
25200.0,-1.6236188101070268,-1.5413328457266577,69499.82854409437,0.0
25380.0,-1.611429756179487,-1.5658421129641638,69217.97696376083,0.0
25560.0,-1.5991991407713753,-1.5895761400935955,68931.85325854398,0.0
25740.0,-1.586926760671478,-1.6125589927976236,68641.59263984041,0.0
25920.0,-1.574612250470498,-1.6348153190026709,68347.32588241993,0.0
26100.0,-1.5622550866289788,-1.6563703068535607,68049.1792271863,0.0
26280.0,-1.54985459195795,-1.6772496406801904,67747.27429186385,0.0
26460.0,-1.5374099405159565,-1.697479454992733,67441.72798996516,0.0
26640.0,-1.5249201629249105,-1.7170862865511276,67132.65245838596,0.0
26820.0,-1.5123841521058736,-1.736097024564086,66820.15499396442,0.0
27000.0,-1.4998006694344719,-1.7545388590827409,66504.33799932952,0.0
27180.0,-1.4871683513141905,-1.7724392276638705,66185.29893835002,0.0
27360.0,-1.474485716164223,-1.789825760387937,65863.1303014802,0.0
27540.0,-1.461751171816965,-1.8067262233273498,65537.91958128127,0.0
27720.0,-1.4489630233185522,-1.8231684605707101,65209.74925837854,0.0
27900.0,-1.4361194811241436,-1.8391803349191531,64878.69679809309,0.0
28080.0,-1.423218669677853,-1.854789667381059,64544.8346579645,0.0
28260.0,-1.4102586363654515,-1.8700241756016558,64208.2303063562,0.0
28440.0,-1.3972373608261002,-1.8849114113738055,63868.94625230892,0.0
28620.0,-1.3841527646075409,-1.8994786973860946,63527.04008677942,0.0
28800.0,-1.3710027211472688,-1.9137530633734303,63182.56453537221,0.0
28980.0,-1.3577850660603694,-1.9277611818444709,62835.5675226402,0.0
29160.0,-1.3444976077128181,-1.9415293035683423,62486.0922479979,0.0
29340.0,-1.3311381380572098,-1.9550831930111452,62134.17727325589,0.0
29520.0,-1.3177044437060772,-1.9684480639196889,61779.85662175035,0.0
29700.0,-1.3041943172161903,-1.9816485152564849,61423.15988900418,0.0
29880.0,-1.2906055685555233,-1.994708467695593,61064.112364818975,0.0
30060.0,-1.276936036722948,-2.007651100893654,60702.735166658116,0.0
30240.0,-1.2631836014891475,-2.0204987917543358,60339.04538414234,0.0
30420.0,-1.249346195225806,-2.033273053907171,59973.05623443905,0.0
30600.0,-1.2354218147887657,-2.045994478623618,59604.777228286795,0.0
30780.0,-1.22140853341963,-2.0586826773937252,59234.214346355926,0.0
30960.0,-1.207304512629183,-2.0713562263864493,58861.37022560636,0.0
31140.0,-1.1931080140250654,-2.0840326130147724,58486.244355263705,0.0
31320.0,-1.1788174110453367,-2.096728184824074,58108.83328199537,0.0
31500.0,-1.1644312005589357,-2.109458100917858,57729.13082383016,0.0
31680.0,-1.1499480142935898,-2.122236286129631,57347.12829232682,0.0
31860.0,-1.1353666300514689,-2.135075388143028,56962.81472246108,0.0
32040.0,-1.1206859826727789,-2.1479867377542177,56576.177109665325,0.0
32220.0,-1.105905174707631,-2.1609803124615814,56187.20065342224,0.0
32400.0,-1.0910234867568276,-2.1740647035571175,55795.869006781955,0.0
32580.0,-1.0760403874427429,-2.1872470868824725,55402.16453114311,0.0
32760.0,-1.0609555429721902,-2.2005331973998015,55006.06855561115,0.0
32940.0,-1.0457688262541467,-2.2139273077137274,54607.56164022268,0.0
33120.0,-1.0304803255363115,-2.2274322106659654,54206.623842302804,0.0
33300.0,-1.0150903525258588,-2.2410492061083715,53803.2349852033,0.0
33480.0,-0.999599449961299,-2.254778091943522,53397.374928653466,0.0
33660.0,-0.9840083986040974,-2.268617159504654,52989.02383994263,0.0
33840.0,-0.9683182236206541,-2.2825631933286656,52578.16246514347,0.0
34020.0,-0.9525302003273605,-2.2966114753574716,52164.772399579124,0.0
34200.0,-0.9366458592737394,-2.310755793583883,51748.83635673403,0.0
34380.0,-0.92066699064111,-2.3249884551389903,51330.33843480901,0.0
34560.0,-0.9045956479368218,-2.339300303798572,50909.26438012527,0.0
34740.0,-0.8884341509668061,-2.353680741866489,50485.6018465893,0.0
34920.0,-0.8721850880720357,-2.3681177563736773,50059.340650442035,0.0
35100.0,-0.8558513176173989,-2.382597949512115,49630.473019529854,0.0
35280.0,-0.8394359687245163,-2.39710657320426,49198.99383635309,0.0
35460.0,-0.8229424412430841,-2.411627567690171,48764.90087416886,0.0
35640.0,-0.8063744049584468,-2.426143603996598,48328.19502544947,0.0
35820.0,-0.7897357980362295,-2.4406361301354558,47888.880522025094,0.0
36000.0,-0.7730308247079943,-2.455085420862698,47446.96514626981,0.0
36180.0,-0.7562639522050102,-2.4694706308135146,47002.460432723376,0.0
36360.0,-0.7394399069502963,-2.483769850815461,46555.38185957659,0.0
36540.0,-0.7225636700221325,-2.497960167168088,46105.74902948634,0.0
36720.0,-0.7056404719051689,-2.512017723665834,45653.585839226485,0.0
36900.0,-0.6886757865481328,-2.5259177861303748,45198.920637723015,0.0
37080.0,-0.67167532474986,-2.5396348092095016,44741.786372065304,0.0
37260.0,-0.6546450268980055,-2.5531425051917545,44282.22072113079,0.0
37440.0,-0.6375910550872453,-2.5664139145799054,43820.26621650641,0.0
37620.0,-0.620519784646103,-2.5794214781613505,43355.97035043737,0.0
37800.0,-0.6034377951036655,-2.592137110310349,42889.385670581505,0.0
37980.0,-0.5863518606294155,-2.6045322732550895,42420.56986139559,0.0
38160.0,-0.5692689399811627,-2.6165780520422732,41949.58581202798,0.0
38340.0,-0.5521961659976239,-2.628245229933083,41476.50167064003,0.0
38520.0,-0.5351408346735472,-2.639504363966729,41001.39088512601,0.0
38700.0,-0.518110393856414,-2.650325860432148,40524.33223024823,0.0
38880.0,-0.5011124316046778,-2.660680049993097,40045.40982124947,0.0
39060.0,-0.48415466424818304,-2.670537262219106,39564.713114050035,0.0
39240.0,-0.46724492419191205,-2.6798678992817813,39082.336892179315,0.0
39420.0,-0.4503911475044441,-2.6886425085854553,38598.381240633935,0.0
39600.0,-0.4336013613325814,-2.696831854110503,38112.951506894045,0.0
39780.0,-0.4168836711834189,-2.704406986258841,37626.15824936745,0.0
39960.0,-0.4002462481147806,-2.7113393100024967,37138.117173567,0.0
40140.0,-0.3836973158743773,-2.717600651148619,36648.949056360245,0.0
40320.0,-0.36724513802729425,-2.723163320547363,36158.77965866172,0.0
40500.0,-0.35089800511049146,-2.7280001760823414,35667.7396269669,0.0
40680.0,-0.33466422185190875,-2.732084682297579,35175.96438415333,0.0
40860.0,-0.31855209449051836,-2.735390967528878,34683.59400999814,0.0
41040.0,-0.3025699182322833,-2.7378938784221383,34190.773111882154,0.0
41220.0,-0.28672596487546237,-2.7395690317354937,33697.65068616976,0.0
41400.0,-0.2710284706370697,-2.740392863337005,33204.3799707691,0.0
41580.0,-0.25548562421056925,-2.7403426743236508,32711.11828939084,0.0
41760.0,-0.24010555508306475,-2.7393966742020575,32218.02688803447,0.0
41940.0,-0.22489632213835326,-2.7375340210852137,31725.270764239132,0.0
42120.0,-0.2098659025702698,-2.734734858872932,31233.018489642003,0.0
42300.0,-0.19502218112875225,-2.7309803513974678,30741.442026390458,0.0
42480.0,-0.18037293971904012,-2.7262527135280257,30250.716537955414,0.0
42660.0,-0.16592584737238109,-2.7205352392403923,29761.020194892142,0.0
42840.0,-0.15168845060458033,-2.71381232666943,29272.533976091643,0.0
43020.0,-0.13766816417669464,-2.70606950017331,28785.44146606045,0.0
43200.0,-0.12387226227016374,-2.697293429448392,28299.92864875974,0.0
43380.0,-0.11030787008669107,-2.6874719457436322,27816.183698525885,0.0
43560.0,-0.09698195588124885,-2.6765940552320093,27334.396768584123,0.0
43740.0,-0.08390132343469625,-2.6646499496047467,26854.75977765527,0.0
43920.0,-0.07107260497067214,-2.651631013961454,26377.466195142206,0.0
44100.0,-0.058502254519664426,-2.6375298320760208,25902.710825368522,0.0
44280.0,-0.046196541731472786,-2.6223401891237557,25430.689591326245,0.0
44460.0,-0.034161546135675756,-2.6060570719608185,24961.599318373297,0.0
44640.0,-0.02240315184819201,-2.5886766670509145,24495.63751830413,0.0
44820.0,-0.01092704272059436,-2.5701963561382546,24033.002174199246,0.0
45000.0,0.00026130207250510623,-2.5506147097686562,23573.891526440886,0.0
45180.0,0.011156612013925704,-2.5299314787630083,23118.503860263543,0.0
45360.0,0.02175382879931999,-2.508147583748931,22667.037295188737,0.0
45540.0,0.03204810947563532,-2.4852651028576416,22219.689576674362,0.0
45720.0,0.04203482917171602,-2.4612872576935394,21776.657870289524,0.0
45900.0,0.051709583430989164,-2.4362183976837994,21338.13855870644,0.0
46080.0,0.061068190156934925,-2.410063982914946,20904.327041781748,0.0
46260.0,0.07010669118271494,-2.382830565562203,20475.41753998055,0.0
46440.0,0.07882135347690697,-2.354525770016015,20051.602901377668,0.0
46620.0,0.08720866999778298,-2.325158271808225,19633.074412452188,0.0
46800.0,0.09526536020896975,-2.294737775438364,19220.021612873283,0.0
46980.0,0.10298837026965006,-2.2632749911976866,18812.632114457698,0.0
47160.0,0.11037487291270473,-2.2307816110861234,18411.091424462196,0.0
47340.0,0.11742226702435794,-2.197270283914015,18015.582773357673,0.0
47520.0,0.12412817693898837,-2.162754589677327,17626.286947215754,0.0
47700.0,0.13049045146279065,-2.1272490132915918,17243.382124823267,0.0
47880.0,0.1365071626399444,-2.0907689177663236,16867.04371962533,0.0
48060.0,0.14217660427484974,-2.0533305168977223,16497.44422658374,0.0
48240.0,0.14749729022385047,-2.014950847553988,16134.753074024022,0.0
48420.0,0.15246795246966535,-1.9756477416234426,15779.136480531803,0.0
48600.0,0.15708753899151717,-1.9354397976919535,15430.75731694725,0.0
48780.0,0.16135521144366477,-1.8943463525121977,15089.774973495056,0.0
48960.0,0.1652703426547346,-1.8523874523233295,14756.345232076856,0.0
49140.0,0.16883251395990148,-1.8095838240758766,14430.620143743197,0.0
49320.0,0.17204151237759369,-1.7659568466127922,14112.747911352895,0.0
49500.0,0.17489732764200508,-1.7215285218538317,13802.872777419205,0.0
49680.0,0.17740014910227628,-1.6763214460267761,13501.134917134385,0.0
49860.0,0.17955036249877618,-1.6303587809853533,13207.670336557021,0.0
50040.0,0.1813485466264686,-1.5836642256502556,12922.610775939975,0.0
50220.0,0.18279546989489248,-1.5362619876063182,12646.083618170838,0.0
50400.0,0.18389208679381877,-1.4881767548854372,12378.21180229146,0.0
50580.0,0.18463953427318214,-1.4394336679619293,12119.113742058313,0.0
50760.0,0.18503912804541262,-1.3900582919837294,11868.903249501242,0.0
50940.0,0.18509235881782501,-1.3400765892601079,11627.689463434423,0.0
51120.0,0.18480088846225576,-1.289514892023768,11395.576782870145,0.0
51300.0,0.18416654612867522,-1.238399875482477,11172.664805283299,0.0
51480.0,0.18319132430904583,-1.186758531173032,10959.048269672154,0.0
51660.0,0.1818773748572497,-1.1346181406278464,10754.817004359142,0.0
51840.0,0.18022700497047114,-1.0820062493623772,10560.055879473914,0.0
