t(s),Tsurface(蚓),Flux(W),E(J),f_liq
0.0,4.0,38.400000000000034,0.0,1.0
180.0,2.948890516052045,33.644678633904455,6056.042154102802,1.0
360.0,2.5378938768476558,31.925173856250577,11802.573448227906,1.0
540.0,2.3160491632119635,31.10042487129766,17400.649925061483,1.0
720.0,2.1732025308107215,30.64679415281913,22917.072872568926,1.0
900.0,2.0665576960292706,30.359617634929613,28381.804046856258,1.0
1080.0,1.977057754353313,30.146984816406935,33808.261313809504,1.0
1260.0,1.8959648146174173,29.966359070187966,39202.20594644334,1.0
1440.0,1.8192491351271733,29.797926628202422,44565.83273951978,1.0
1620.0,1.7450520133607546,29.63244781344597,49899.67334594005,1.0
1800.0,1.6725181036108463,29.465617452823345,55203.48448744825,1.0
1980.0,1.6012557554496405,29.295435742890014,60476.662921168456,1.0
2160.0,1.531087396221995,29.12098154555604,65718.43959936855,1.0
2340.0,1.4619340925696975,28.94184011044045,70927.97081924783,1.0
2520.0,1.393762193007502,28.757836195347345,76104.38133441035,1.0
2700.0,1.3265586820600035,28.568909633969543,81246.78506852487,1.0
2880.0,1.260319805101576,28.375057297661982,86354.29538210403,1.0
3060.0,1.1950458229521674,28.176305978035685,91426.03045815045,1.0
3240.0,1.130738595942503,27.972699657437996,96461.11639648929,1.0
3420.0,1.0674004732543911,27.764293468278808,101458.68922077947,1.0
3600.0,1.0050337841108121,27.551150759067557,106417.89635741164,1.0
3780.0,0.9436406064092288,27.333341602058283,111337.89784578212,1.0
3960.0,0.8832226632882234,27.11094196930448,116217.86740025693,1.0
4140.0,0.8237812787637548,26.884033218530373,121056.9933795924,1.0
4320.0,0.7653173607308171,26.652701722789015,125854.47968969442,1.0
4500.0,0.7078313967361212,26.417038567225905,130609.54663179508,1.0
4680.0,0.65132345580001,26.177139277687896,135321.4317017789,1.0
4860.0,0.5957931931858623,25.9331035650917,139989.3903434954,1.0
5040.0,0.541239856678797,25.68503507832934,144612.6966575947,1.0
5220.0,0.5423699708837662,25.75589126092274,149248.75708456078,1.0
5400.0,0.5439649118328085,25.823194216148654,153896.93204346753,1.0
5580.0,0.5454146760820262,25.883261566189667,158555.91912538168,1.0
5760.0,0.546332805598184,25.93368389442026,163223.98222637732,1.0
5940.0,0.5464833674133563,25.972921255199036,167899.10805231315,1.0
6120.0,0.5457329439806661,26.000036530731983,172579.11462784492,1.0
6300.0,0.5440176655925695,26.014510822660466,177261.7265759238,1.0
6480.0,0.5413203785949869,26.016114391781297,181944.62716644444,1.0
6660.0,0.5376548222825513,26.004816274936783,186625.49409593307,1.0
6840.0,0.5330546839954523,25.980721025492187,191302.02388052165,1.0
7020.0,0.5275660540887025,25.944024505729843,195971.948291553,1.0
7200.0,0.5212422498967921,25.89498306189877,200633.0452426948,1.0
7380.0,0.5141402889723304,25.833892094921442,205283.14581978065,1.0
7560.0,0.5063185090478889,25.761071222435646,209920.13863981905,1.0
7740.0,0.49783498388658737,25.676854060068937,214541.97237063147,0.9978349838865874
7920.0,0.4887464901951969,25.58158123553514,219146.6569930278,0.9887464901951969
8100.0,0.4791078548405766,25.475595661262176,223732.264212055,0.9791078548405766
8280.0,0.4689715633533827,25.359239381207566,228296.92730067234,0.9689715633533826
8460.0,0.4583875468440627,25.232851511442885,232838.84057273206,0.9583875468440627
8640.0,0.4474030896937338,25.09676693749501,237356.25862148116,0.9474030896937338
8820.0,0.43606281800092267,24.95131553223356,241847.4954172832,0.9360628180009227
9000.0,0.42440874105983906,24.796821728943897,246310.9233284931,0.9244087410598391
9180.0,0.412480326721273,24.633604333990593,250744.97210861143,0.912480326721273
9360.0,0.4003145974645636,24.46197649842899,255148.12787832864,0.9003145974645637
9540.0,0.3879462381719608,24.28224579245291,259518.93212097016,0.8879462381719607
9720.0,0.3754077094925775,24.094714343778186,263855.9807028502,0.8754077094925775
9900.0,0.3627293626945626,23.899679013124704,268157.92292521265,0.8627293626945626
10080.0,0.34993955329837595,23.697431588409437,272423.4606111263,0.849939553298376
10260.0,0.33706475174780837,23.488258985177104,276651.3472284582,0.8370647517478084
10440.0,0.32412965003905725,23.272443444923333,280840.3870485444,0.8241296500390572
10620.0,0.31115726368281393,23.0502627258452,284989.43433919654,0.8111572636828139
10800.0,0.29816902868352096,22.82199028255926,289097.3925900572,0.798169028683521
10980.0,0.28518489342809195,22.587895432711996,293163.21376794536,0.785184893428092
11160.0,0.2722234055144381,22.348243509367403,297185.8975996315,0.7722234055144381
11340.0,0.25930179363969885,22.10329599871242,301164.49087939976,0.7593017936396989
11520.0,0.24643604472420985,21.853310663063972,305098.08679875126,0.7464360447242099
11700.0,0.23364097648042395,21.598541649461794,308985.82429565437,0.7336409764804239
11880.0,0.22093030565356853,21.339239584324663,312826.8874208328,0.7209303056535685
12060.0,0.20831671216780803,21.07565165477334,316620.50471869204,0.708316712167808
12240.0,0.19581189941164728,20.808021677295557,320365.9486206052,0.6958118994116473
12420.0,0.187671838022177,20.56357168033285,324067.39152306516,0.687671838022177
12600.0,0.1800112491891876,20.31769069600217,327724.5758483455,0.6800112491891876
12780.0,0.1729057990321093,20.07100893323903,331337.3574563286,0.6729057990321092
12960.0,0.1663256479165647,19.823485900162243,334905.5849183578,0.6663256479165647
13140.0,0.15942608781885467,19.569941722876926,338428.1744284756,0.6594260878188547
13320.0,0.1530090409119511,19.315608361100477,341904.9839334737,0.6530090409119511
13500.0,0.1470703502780881,19.0606116825724,345335.89403633674,0.6470703502780881
13680.0,0.14158002770750963,18.804915383418102,348720.778805352,0.6415800277075097
13860.0,0.1365029592244802,18.54845241565411,352059.50024016976,0.6365029592244802
14040.0,0.13180502780346412,18.291163711773912,355351.9097082891,0.6318050278034641
14220.0,0.12745496202181228,18.033009738288605,358597.851461181,0.6274549620218123
14400.0,0.12342471147299205,17.77397268866649,361797.16654514096,0.623424711472992
14580.0,0.11968931590091528,17.514055460135022,364949.69652796525,0.6196893159009152
14760.0,0.11622661898973563,17.253279642496878,368055.2868636147,0.6162266189897356
14940.0,0.11301695350286116,16.991683323242313,371113.7898617983,0.6130169535028611
15120.0,0.11004284152747598,16.72931898725066,374125.0672795034,0.610042841527476
15300.0,0.10728872302109793,16.466251595716383,377088.99256673234,0.6072887230210979
15480.0,0.10474071481081682,16.20255685890066,380005.45280133444,0.6047407148108168
15660.0,0.1023863984040338,15.938319693176945,382874.3503461063,0.6023863984040339
15840.0,0.10021463385100927,15.673632845609099,385695.6042583159,0.6002146338510093
16020.0,0.09821539674481906,15.408595668178616,388469.15147858806,0.598215396744819
16200.0,0.09637963561796002,15.14331302474941,391194.9478230429,0.59637963561796
16380.0,0.09469914726292443,14.877894315446431,393872.96879982325,0.5946991472629244
16560.0,0.09316646778250162,14.612452604803556,396503.2102686879,0.5931664677825016
16740.0,0.09177477743596349,14.347103841612794,399085.68896017823,0.5917747774359635
16920.0,0.09051781758170295,14.081966159841507,401620.4428689497,0.590517817581703
17100.0,0.08938981822472067,13.817159251258625,404107.53153417626,0.5893898182247207
17280.0,0.08838543486043261,13.552803801542243,406547.03621845384,0.5883854348604326
17460.0,0.08749969346711932,13.289020982637387,408939.05999532854,0.5874996934671193
17640.0,0.08672794264048383,13.025931995015151,411283.72775443125,0.5867279426404839
17820.0,0.08606581198758645,12.763657654256397,413581.1861321974,0.5860658119875864
18000.0,0.08550917600598124,12.502318017068777,415831.60337526974,0.5855091760059812
18180.0,0.0850541227690633,12.242032042445341,418035.16914290993,0.5850541227690633
18360.0,0.0846969268220854,11.98291728420205,420192.0942540663,0.5846969268220854
18540.0,0.08443402576646483,11.725089611597532,422302.61038415384,0.5844340257664649
18720.0,0.08426200007414102,11.468662955147025,424366.9697160803,0.584262000074141
18900.0,0.08417755572997422,11.21374907510276,426385.4445495988,0.5841775557299742
19080.0,0.08417750934946927,10.96045735038912,428358.3268726688,0.5841775093494692
19260.0,0.08425877546232116,10.708894586059,430285.9278981594,0.5842587754623212
19440.0,0.08441835569016368,10.459164837581673,432168.5775689241,0.5844183556901636
19620.0,0.08465332958010818,10.211369250486923,434006.62403401174,0.5846533295801082
19800.0,0.08496084688477454,9.965605914077557,435800.4330985457,0.5849608468847746
19980.0,0.08533812110503476,9.721969728088721,437550.3876496017,0.5853381211050348
20160.0,0.08578242413406334,9.480552281314854,439256.88706023834,0.5857824241340633
20340.0,0.08629108186090037,9.241441741353468,440920.346573682,0.5862910818609004
20520.0,0.08686147060892814,9.004722754724153,442541.19666953234,0.5868614706089281
20700.0,0.08749101429973537,8.77047635671934,444119.88241374184,0.5874910142997354
20880.0,0.08817718224605925,8.538779890426374,445656.8627940186,0.5881771822460593
21060.0,0.08891748748908289,8.309706934435312,447152.61004221695,0.5889174874890829
21240.0,0.08970948560552698,8.083327238810092,448607.6089452028,0.5897094856055269
21420.0,0.09055077391888315,7.859706668957217,450022.3561456151,0.5905507739188831
21600.0,0.09143899105695169,7.63890715707336,451397.35943388834,0.5914389910569517
21780.0,0.09237181680470065,7.420986660896337,452733.13703284966,0.5923718168047006
21960.0,0.09334697220747604,7.205999129518624,454030.21687616303,0.593346972207476
22140.0,0.09436221988486934,6.99399447605445,455289.1358818528,0.5943622198848694
22320.0,0.09541536452018037,6.785018556977383,456510.43922210875,0.5954153645201804
22500.0,0.09650425349447868,6.5791131579677335,457694.6795905429,0.5965042534944787
22680.0,0.09762677763783847,6.37631598612843,458842.416468046,0.5976267776378384
22860.0,0.09878087207345959,6.176660668443237,459954.2153883658,0.5987808720734595
23040.0,0.09996451713314604,5.980176756364576,461030.6472045114,0.599964517133146
23220.0,0.10117573932504013,5.786889736428645,462072.28735706856,0.6011757393250401
23400.0,0.10241261233664684,5.596821046804001,463079.7151454933,0.6024126123366469
23580.0,0.1036732580580663,5.409988099686019,464053.51300343673,0.6036732580580663
23760.0,0.10495584761201093,5.226404309454729,464994.2657791386,0.6049558476120109
23940.0,0.10625860237865271,5.0460791265162115,465902.5600219115,0.6062586023786527
24120.0,0.10757979500464125,4.869018076750203,466778.98327572655,0.6075797950046412
24300.0,0.10891775038678236,4.695222806486571,467624.12338089413,0.6089177503867824
24480.0,0.110270846621888,4.524691132933169,468438.5677848221,0.610270846621888
24660.0,0.11163751591521344,4.357417099976065,469222.90286281775,0.6116375159152134
24840.0,0.11301624544070836,4.193391039270808,469977.71324988647,0.6130162454407083
25020.0,0.11440557814703027,4.0325996365402315,470703.5811844637,0.6144055781470302
25200.0,0.11580411350391911,3.875026002990471,471401.08586500195,0.6158041135039192
25380.0,0.11721050818411471,3.720649751752671,472070.80282031745,0.6172105081841147
25560.0,0.11862347667652834,3.569447079252652,472713.30329458293,0.6186234766765284
25740.0,0.12004179182685784,3.421390851405387,473329.1536478359,0.6200417918268578
25920.0,0.12146428530227325,3.2764506945254954,473918.91477285046,0.6214642853022733
26100.0,0.12288984797720155,3.1345930908382846,474483.14152920136,0.6228898479772016
26280.0,0.12431743023760636,2.995781478469804,475022.3821953259,0.6243174302376063
26460.0,0.12574604220150234,2.8599763557871,475537.1779393676,0.6257460422015023
26640.0,0.12717475385376137,2.7271353899529744,476028.06230955914,0.6271747538537613
26820.0,0.12860269509356578,2.5972135295523335,476495.56074487854,0.6286026950935658
27000.0,0.13002905569314643,2.470163121139653,476940.1901066837,0.6300290556931465
27180.0,0.13145308516670717,2.34593402954963,477362.4582320026,0.6314530851667072
27360.0,0.13287409254869292,2.2244737618055805,477762.86350912764,0.6328740925486929
27540.0,0.13429144608080018,2.1057275944524085,478141.8944761291,0.6342914460808002
27720.0,0.1357045728073614,1.9896387041333963,478500.0294428731,0.6357045728073614
27900.0,0.13711295807896082,1.8761483012225033,478837.73613709316,0.6371129580789608
28080.0,0.13851614496435663,1.7651957663164006,479155.4713750301,0.6385161449643566
28260.0,0.13991373357099793,1.656718789383036,479453.6807571191,0.6399137335709979
28440.0,0.14130538027462933,1.5506535113562754,479732.7983891632,0.6413053802746294
28620.0,0.14269079685868175,1.446934667959204,479993.2466293959,0.6426907968586817
28800.0,0.14406974956434404,1.3454957355317434,480235.4358617916,0.644069749564344
28980.0,0.1454420580524045,1.2462690786316761,480459.7642959453,0.6454420580524045
29160.0,0.14680759427814388,1.149186099171938,480666.61779379623,0.6468075942781439
29340.0,0.14816628128074835,1.0541773868508555,480856.3697234294,0.6481662812807484
29520.0,0.14951809188889545,0.9611728706266602,481029.3808401422,0.6495180918888954
29700.0,0.15086304734434813,0.8701019709819449,481185.99919491896,0.6508630473443482
29880.0,0.1522012158455698,0.7808937527192975,481326.56007040845,0.6522012158455698
30060.0,0.15353271101354865,0.6934770780245314,481451.3859444529,0.6535327110135487
30240.0,0.15485769028219132,0.6077807595301893,481560.78648116835,0.6548576902821913
30420.0,0.15617635321581386,0.5237337131085346,481655.0585495279,0.6561763532158138
30600.0,0.15748893975642214,0.4412651101200854,481734.4862693495,0.6574889397564221
30780.0,0.15879572840363476,0.3603045288416266,481799.341084541,0.6587957284036348
30960.0,0.1600970343302565,0.2807821047955019,481849.8818634042,0.6600970343302565
31140.0,0.16139320743666274,0.20262867970096476,481886.35502575035,0.6613932074366627
31320.0,0.16268463034730013,0.12577594876757378,481908.99469652853,0.6626846303473002
31500.0,0.16397171635275193,0.050156606050670204,481918.0228856177,0.6639717163527519
31680.0,0.16525490730094916,-0.024295512410422042,481913.64969338384,0.6652549073009492
31860.0,0.16653467144124035,-0.09764528794953183,481896.07354155293,0.6665346714412403
32040.0,0.16781150122515467,-0.16995618140224875,481865.4814289005,0.6678115012251546
32220.0,0.1690859110678084,-0.24129009827938505,481822.0492112102,0.6690859110678085
32400.0,0.17035843507401616,-0.3117072572555286,481765.9419049042,0.6703584350740162
32580.0,0.1716296247332672,-0.381266062238643,481697.3140137012,0.6716296247332671
32760.0,0.17290004658782235,-0.45002297828217674,481616.3098776104,0.6729000465878223
32940.0,0.1741702798782722,-0.5180324115955345,481523.0640435232,0.6741702798782722
33120.0,0.17544091417097443,-0.585346593902633,481417.7016566208,0.6754409141709744
33300.0,0.17671254697185454,-0.6520154713915816,481300.3388717703,0.6767125469718546
33480.0,0.17798578133111584,-0.7180865984907296,481171.08328404196,0.6779857813311159
33660.0,0.17926122344345077,-0.7836050366983843,481030.03437743627,0.6792612234434507
33840.0,0.18053948024838842,-0.8486132586844114,480877.2839908731,0.6805394802483884
34020.0,0.1818211570354393,-0.9131510578724845,480712.91680045606,0.6818211570354393
34200.0,0.1831068550587206,-0.9772554637015707,480537.01081698976,0.6831068550587206
34380.0,0.18439716916575302,-1.040960662754415,480349.63789769396,0.684397169165753
34560.0,0.18569268544511755,-1.1042979259293986,480150.8642710267,0.6856926854451175
34740.0,0.1869939788976504,-1.1672955418202349,479940.75107349904,0.6869939788976505
34920.0,0.1883016111358293,-1.2299787564553482,479719.3548973371,0.6883016111358293
35100.0,0.18961612811597042,-1.2923697195359214,479486.72834782064,0.6896161281159704
35280.0,0.19093805790781151,-1.3544874372979556,479242.920609107,0.6909380579078115
35460.0,0.19226790850599848,-1.416347732109859,478987.97801732726,0.6922679085059985
35640.0,0.19360616568792852,-1.4779632089026413,478721.9446397248,0.6936061656879285
35820.0,0.19495329092232147,-1.5393432285151376,478444.86285859207,0.6949532909223215
36000.0,0.19630971933280628,-1.6004938880216535,478156.77395874815,0.6963097193328063
36180.0,0.19767585772070762,-1.6614180080939462,477857.71871729125,0.6976758577207076
36360.0,0.19905208265110774,-1.7221151274341713,477547.7379943531,0.6990520826511077
36540.0,0.20043873860614178,-1.7825815042992788,477226.87332357926,0.7004387386061418
36720.0,0.20183613620934987,-1.8428101251217859,476895.1675010573,0.7018361362093499
36900.0,0.20324455052477378,-1.902790720215558,476552.6651714185,0.7032445505247737
37080.0,0.20466421943433563,-1.9625097865393246,476199.4134098414,0.7046642194343357
37260.0,0.20609534209687524,-2.021950617474446,475835.46229869605,0.7060953420968752
37440.0,0.2075380774920591,-2.0810933395575657,475460.86549757567,0.7075380774920591
37620.0,0.20899254305219775,-2.139914956092612,475075.680805479,0.7089925430521977
37800.0,0.21045881338482297,-2.1983893975510633,474679.9707139198,0.710458813384823
37980.0,0.2119369190886886,-2.256487578653577,474273.80294976215,0.7119369190886886
38160.0,0.21342684566565948,-2.3141774620108113,473857.2510066002,0.7134268456656595
38340.0,0.2149285325307498,-2.3714241281861765,473430.3946635267,0.7149285325307498
38520.0,0.21644187212236182,-2.428189852028452,472993.32049016154,0.7164418721223618
38700.0,0.21796670911456217,-2.4844341851079417,472546.1223368421,0.7179667091145622
38880.0,0.21950283973301152,-2.540114044075742,472088.9018089085,0.7195028397330115
39060.0,0.22105001117594167,-2.5951838047524567,471621.76872405305,0.7210500111759417
39240.0,0.22260792114134512,-2.6495954017394183,471144.84155173996,0.7226079211413451
39420.0,0.2241762174613131,-2.703298433333401,470658.24783373997,0.7241762174613131
39600.0,0.22575449784422633,-2.756240271513777,470162.1245848675,0.7257544978442263
39780.0,0.22734230972526642,-2.8083661767598667,469656.6186730507,0.7273423097252665
39960.0,0.22893915022548597,-2.85961941744583,469141.8871779105,0.7289391502254859
40140.0,0.23054446621943464,-2.909941393550446,468618.0977270714,0.7305444662194347
40320.0,0.23215765451110834,-2.959271764410116,468085.42880947754,0.7321576545111084
40500.0,0.23377806211775454,-3.007548580234908,467544.07006503525,0.7337780621177545
40680.0,0.23540498666083196,-3.054708417099794,466994.2225499573,0.735404986660832
40860.0,0.23703767686319882,-3.100686515116703,466436.09897723625,0.7370376768631988
41040.0,0.23867533315137154,-3.1454169194863937,465869.9239317287,0.7386753331513716
41220.0,0.24031710836147813,-3.188832624124402,465295.9340593863,0.7403171083614781
41400.0,0.24196210854730815,-3.230865717550745,464714.37823022716,0.7419621085473082
41580.0,0.2436093938886502,-3.271447530729187,464125.5176746959,0.7436093938886502
41760.0,0.24525797969789612,-3.310508786539661,463529.62609311874,0.7452579796978961
41940.0,0.2469068375226924,-3.347979750564903,462926.9897380171,0.7469068375226924
42120.0,0.24855489634221972,-3.383790382871816,462317.90746910014,0.7485548963422197
42300.0,0.25020104385449354,-3.4178704904673514,461702.690780816,0.7502010438544935
42480.0,0.25184412785189686,-3.4501498801095454,461081.6638023963,0.7518441278518968
42660.0,0.25348295768198287,-3.4805585111556034,460455.16327038826,0.7534829576819828
42840.0,0.2551163057904155,-3.5090266481310515,459823.5384737247,0.7551163057904156
43020.0,0.25674290934276406,-3.535485012706932,459187.1511714374,0.756742909342764
43200.0,0.2583614719217152,-3.5598649347757636,458546.3754831778,0.7583614719217152
43380.0,0.2599706652961272,-3.582098502321378,457901.59775275993,0.7599706652961272
43560.0,0.2615691312582236,-3.6021187097827276,457253.21638499905,0.7615691312582236
43740.0,0.26315548352510054,-3.619859604618047,456601.6416561678,0.7631554835251005
43920.0,0.2647283097006136,-3.6352564317816007,455947.29549844714,0.7647283097006137
44100.0,0.26628617329361004,-3.6482457758329487,455290.61125879723,0.76628617329361
44280.0,0.2678276157883811,-3.6587657004060814,454632.0334327241,0.7678276157883811
