t(s),Tsurface(蚓),Flux(W),E(J),f_liq
0.0,0.0,19.200000000000017,0.0,0.0
180.0,-0.6662141470292637,16.140764398485317,2905.337591727357,0.0
360.0,-0.9525643632681773,14.878691952138595,5583.502143112304,0.0
540.0,-1.127411571664785,14.139540039196845,8128.619350167736,0.0
720.0,-1.2475337710001306,13.655157009931557,10586.547611955417,0.0
900.0,-1.3352411873288546,13.320544826901532,12984.245680797692,0.0
1080.0,-1.4026167830895124,13.078630911441422,15338.399244857148,0.0
1260.0,-1.4569702263945012,12.894632666706965,17659.4331248644,0.0
1440.0,-1.502871695063346,12.746614229038604,19953.82368609135,0.0
1620.0,-1.5432046879016674,12.620610396061796,22225.533557382474,0.0
1800.0,-1.5797921030621775,12.50771274548353,24476.92185156951,0.0
1980.0,-1.6137860899965966,12.402240935992948,26709.325220048242,0.0
2160.0,-1.6459141424534862,12.300578213344032,28923.429298450166,0.0
2340.0,-1.6766349988612659,12.200427046133772,31119.506166754247,0.0
2520.0,-1.7062374568432475,12.100333047090702,33297.56611523058,0.0
2700.0,-1.7349029800575337,11.999380604744129,35457.45462408452,0.0
2880.0,-1.7627453377411455,11.896998423217997,37598.914340263764,0.0
3060.0,-1.7898356831833184,11.792835370906616,39721.62470702695,0.0
3240.0,-1.8162184070583778,11.686681271028455,41825.22733581207,0.0
3420.0,-1.841921150570628,11.578416395165416,43909.34228694185,0.0
3600.0,-1.8669611241477737,11.467979272819422,45973.578556049346,0.0
3780.0,-1.8913490908323838,11.355346178829356,48017.54086823863,0.0
3960.0,-1.9150918746168613,11.24051806001104,50040.83411904062,0.0
4140.0,-1.9381939377771475,11.123512196925146,52043.06631448715,0.0
4320.0,-1.9606583710257155,11.004356877183822,54023.85055238024,0.0
4500.0,-1.982487513600358,10.883087982657816,55982.80638925864,0.0
4680.0,-2.003683340292014,10.759746792195637,57919.56081185386,0.0
4860.0,-2.024247701799451,10.634378555892651,59833.74895191454,0.0
5040.0,-2.0441824728442475,10.507031558942767,61725.01463252424,0.0
5220.0,-2.0634896423213904,10.377756496153511,63593.01080183187,0.0
5400.0,-2.0821713670537725,10.246606043699913,65437.39988969786,0.0
5580.0,-2.1002300027144805,10.113634556280017,67257.85410982826,0.0
5760.0,-2.1176681204423837,9.978897844219112,69054.05572178769,0.0
5940.0,-2.1344885145072086,9.84245300179096,70825.69726211007,0.0
6120.0,-2.1506942043879764,9.704358268614268,72572.48175046065,0.0
6300.0,-2.1662884333771157,9.564672912679121,74294.12287474288,0.0
6480.0,-2.181274665036655,9.423457127791028,75990.34515774527,0.0
6660.0,-2.1956565783397024,9.280771940890919,77660.88410710564,0.0
6840.0,-2.209438062021006,9.136679126392616,79305.4863498563,0.0
7020.0,-2.222623208466213,8.991241125738755,80923.90975248929,0.0
7200.0,-2.2352163073477294,8.844520971040602,82515.9235272766,0.0
7380.0,-2.247221839138555,8.696582212084387,84081.30832545178,0.0
7560.0,-2.2586444685874363,8.54748884624625,85619.85631777611,0.0
7740.0,-2.269489038208396,8.397305251019768,87131.37126295967,0.0
7920.0,-2.279760561818552,8.246096118959281,88615.66856437235,0.0
8100.0,-2.289464218145974,8.093926394903388,90072.57531545496,0.0
8280.0,-2.298605344521517,7.940861215379778,91501.93033422332,0.0
8460.0,-2.307189430663511,7.786965850113861,92903.58418724382,0.0
8640.0,-2.315222112560864,7.632305645576217,94277.39920344754,0.0
8820.0,-2.322709166457848,7.476945970510555,95623.24947813943,0.0
9000.0,-2.3296565029423166,7.320952163386667,96941.02086754903,0.0
9180.0,-2.336070161137942,7.164389481724533,98230.61097425944,0.0
9360.0,-2.341956303000251,7.007323053235018,99491.92912384175,0.0
9540.0,-2.347321207715572,6.849817828722573,100724.89633301181,0.0
9720.0,-2.352171266201497,6.691938536693877,101929.44526961671,0.0
9900.0,-2.356512975707029,6.533749639615654,103105.52020474753,0.0
10080.0,-2.360352934510214,6.375315291763711,104253.076957265,0.0
10260.0,-2.3636978367107586,6.216699298604347,105372.08283101379,0.0
10440.0,-2.3665544671148386,6.0579650776487695,106462.51654499056,0.0
10620.0,-2.368929696209077,5.899175620720304,107524.36815672021,0.0
10800.0,-2.3708304752204565,5.740393457573837,108557.63897908351,0.0
10980.0,-2.3722638312587416,5.581680620806924,109562.34149082875,0.0
11160.0,-2.373236862537822,5.423098612001744,110538.49924098907,0.0
11340.0,-2.3737567336722516,5.264708369037281,111486.14674741578,0.0
11520.0,-2.3738306710451385,5.106570234511388,112405.32938962783,0.0
11700.0,-2.373465958243428,4.948743925212894,113296.10329616615,0.0
11880.0,-2.372669931556569,4.791288502584432,114158.53522663136,0.0
12060.0,-2.3714499755344396,4.634262344117375,114992.70244857248,0.0
12240.0,-2.369813518600419,4.477723115621352,115798.69260938432,0.0
12420.0,-2.3677680287153957,4.321727744311434,116576.60360336037,0.0
12600.0,-2.3653210090885644,4.166332392657532,117326.54343403873,0.0
12780.0,-2.3624799939307777,4.011592432941554,118048.6300719682,0.0
12960.0,-2.3592525442462997,3.857562422469415,118742.9913080127,0.0
13140.0,-2.355646243658804,3.7042960793861215,119409.76460230221,0.0
13320.0,-2.3516686942675076,3.5518462590440762,120049.09692893014,0.0
13500.0,-2.3473275125293975,3.400264930876088,120661.14461648784,0.0
13680.0,-2.3426303251635536,3.24960315572646,121246.07318451861,0.0
13860.0,-2.3375847650736916,3.0999110635954006,121804.05717596578,0.0
14040.0,-2.3321984672850986,2.951237831753854,122335.27998568147,0.0
14220.0,-2.3264790648923035,2.8036316631878653,122839.93368505528,0.0
14400.0,-2.3204341850138834,2.657139765333908,123318.21884281539,0.0
14580.0,-2.314071444751001,2.51180832906856,123770.34434204773,0.0
14760.0,-2.307398447146384,2.367682507918484,124196.52719347306,0.0
14940.0,-2.300422777140635,2.2248063974588392,124596.99234501565,0.0
15120.0,-2.293151997522944,2.0832230148711086,124971.97248769244,0.0
15300.0,-2.285593644873451,1.9429742786334994,125321.70785784647,0.0
15480.0,-2.277755225494738,1.8041009883202406,125646.44603574411,0.0
15660.0,-2.2696442113301343,1.666642804488561,125946.44174055205,0.0
15840.0,-2.2612680358667583,1.5306382286353155,126221.95662170641,0.0
16020.0,-2.252634090021483,1.3961245832081142,126473.25904668387,0.0
16200.0,-2.2437497180082717,1.2631379916589998,126700.62388518249,0.0
16380.0,-2.234622213185607,1.1317133585319785,126904.33228971825,0.0
16560.0,-2.225258813883067,1.0018843495791023,127084.67147264248,0.0
16740.0,-2.2156666992063756,0.8736833719031949,127241.93447958506,0.0
16920.0,-2.2058529848206394,0.7471415541290096,127376.41995932828,0.0
17100.0,-2.1958247187117856,0.6222887266082534,127488.43193011777,0.0
17280.0,-2.1855888769266207,0.4991534016677858,127578.27954241798,0.0
17460.0,-2.1751523592923085,0.3777627539141891,127646.27683812253,0.0
17640.0,-2.1645219851164454,0.2581426006120057,127692.7425062327,0.0
17820.0,-2.1537044888693804,0.14031738215707762,127717.99963502097,0.0
18000.0,-2.1427065158508194,0.0243101426707005,127722.37546070169,0.0
18180.0,-2.131534617843242,-0.08985748925527907,127706.20111263574,0.0
18360.0,-2.120195248755119,-0.202165319627901,127669.81135510272,0.0
18540.0,-2.108694760257425,-0.3125946078979097,127613.5443256811,0.0
18720.0,-2.097039397417427,-0.42112808553612197,127537.74127028459,0.0
18900.0,-2.0852352943342796,-0.52774997429289,127442.74627491187,0.0
19080.0,-2.07328846978148,-0.6324460040872902,127328.90599417617,0.0
19260.0,-2.0612048228617965,-0.7352034304679129,127196.56937669194,0.0
19440.0,-2.048990128680861,-0.8360110515821841,127046.08738740715,0.0
19620.0,-2.036650034046167,-0.934859224586264,126877.81272698163,0.0
19800.0,-2.0241900531988546,-1.0317398814227026,126692.09954832554,0.0
19980.0,-2.0116155635862083,-1.1266465438880249,126489.3031704257,0.0
20160.0,-1.998931801683445,-1.2195743379076627,126269.77978960233,0.0
20340.0,-1.98614385887395,-1.310520006930784,126033.88618835478,0.0
20520.0,-1.9732566773977622,-1.3994819243529169,125781.97944197126,0.0
20700.0,-1.9602750463786942,-1.4864601048696202,125514.41662309473,0.0
20880.0,-1.9472035979411066,-1.5714562146599929,125231.55450445593,0.0
21060.0,-1.934046803427954,-1.6544735802945951,124933.74926000289,0.0
21240.0,-1.9208089697323172,-1.735517196258264,124621.3561646764,0.0
21420.0,-1.9074942357552098,-1.814593730974498,124294.72929310099,0.0
21600.0,-1.8941065690030356,-1.89171153121457,123954.22121748237,0.0
21780.0,-1.8806497623385945,-1.9668806247713941,123600.18270502352,0.0
21960.0,-1.8671274309000652,-2.040112721275259,123232.96241519396,0.0
22140.0,-1.853543009202874,-2.1114212110262915,122852.90659720924,0.0
22320.0,-1.839899748439829,-2.1808211617164703,122460.35878810027,0.0
22500.0,-1.8262007139952834,-2.2483293129127064,122055.65951177599,0.0
22680.0,-1.812448783189479,-2.3139640681715896,121639.1459795051,0.0
22860.0,-1.7986466432695292,-2.3777454846562383,121211.15179226699,0.0
23040.0,-1.7847967896637453,-2.439695260126046,120772.0066454443,0.0
23220.0,-1.7709015245162207,-2.499836717171335,120322.03603635346,0.0
23400.0,-1.7569629555187034,-2.5581947845668296,119861.56097513143,0.0
23580.0,-1.7429829950568192,-2.6147959756204995,119390.89769951974,0.0
23760.0,-1.7289633596876997,-2.6696683633978946,118910.35739410813,0.0
23940.0,-1.7149055699659388,-2.7228415527067646,118420.24591462091,0.0
24120.0,-1.7008109506345699,-2.774346648731734,117920.8635178492,0.0
24300.0,-1.6866806311974696,-2.8242162222156533,117412.50459785038,0.0
24480.0,-1.672515546889159,-2.872484271091225,116895.45742905396,0.0
24660.0,-1.6583164400574488,-2.9191861784751656,116370.00391692843,0.0
24840.0,-1.644083861973736,-2.964358666946532,115836.41935687805,0.0
25020.0,-1.6298181750850091,-3.0080397490414628,115294.97220205059,0.0
25200.0,-1.6155195557207156,-3.0502686739080707,114745.92384074713,0.0
25380.0,-1.6011879972666647,-3.0910858700781674,114189.52838413305,0.0
25560.0,-1.5868233138169874,-3.1305328843260485,113626.03246495436,0.0
25740.0,-1.5724251443139277,-3.1686523165996547,113055.67504796642,0.0
25920.0,-1.557992957183832,-3.2054877510252253,112478.68725278188,0.0
26100.0,-1.5435260554761987,-3.2410836830033984,111895.29218984126,0.0
26280.0,-1.5290235825109948,-3.2754854424327853,111305.70481020336,0.0
26460.0,-1.5144845280376686,-3.3087391131155894,110710.13176984256,0.0
26640.0,-1.4999077349074024,-3.340891448419595,110108.77130912703,0.0
26820.0,-1.4852919062581216,-3.3719897832911516,109501.81314813462,0.0
27000.0,-1.470635613209674,-3.4020819427348425,108889.43839844235,0.0
27180.0,-1.4559373030643374,-3.431216146896913,108271.8194920009,0.0
27360.0,-1.4411953080055155,-3.4594409129119583,107649.12012767674,0.0
27540.0,-1.4264078542850593,-3.486804953694127,107021.49523601179,0.0
27720.0,-1.4115730718871733,-3.5133570738771502,106389.0909627139,0.0
27900.0,-1.396689004654317,-3.539146063129713,105752.04467135055,0.0
28080.0,-1.381753620857931,-3.5642205870951393,105110.48496567343,0.0
28260.0,-1.36676482419418,-3.588629076226569,104464.53173195265,0.0
28440.0,-1.3517204651822723,-3.612419612810398,103814.29620164678,0.0
28620.0,-1.3366183529402693,-3.6356398164916146,103159.88103467828,0.0
28800.0,-1.3214562673106902,-3.6583367286351423,102501.38042352397,0.0
28980.0,-1.3062319713056163,-3.680556695875978,101838.88021826629,0.0
29160.0,-1.2909432238384972,-3.702345253229394,101172.458072685,0.0
29340.0,-1.2755877927073922,-3.723747007148448,100502.18361139827,0.0
29520.0,-1.2601634677920548,-3.744805518931391,99828.11861799062,0.0
29700.0,-1.2446680744250311,-3.7655631888946863,99150.31724398957,0.0
29880.0,-1.229099486894856,-3.786061141738277,98468.82623847669,0.0
30060.0,-1.2134556420375093,-3.8063391135394458,97783.68519803959,0.0
30240.0,-1.1977345528705667,-3.826435340817916,97094.92683669236,0.0
30420.0,-1.1819343222228997,-3.846386452119778,96402.5772753108,0.0
30600.0,-1.166053156311512,-3.866227362569547,95706.65635004829,0.0
30780.0,-1.1500893782159576,-3.8859911718389837,95007.17793911727,0.0
30960.0,-1.134041441199999,-3.9057090659781686,94304.1503072412,0.0
31140.0,-1.117907941829575,-3.9254102235478,93597.5764670026,0.0
31320.0,-1.1016876328358634,-3.9451217264829745,92887.45455623567,0.0
31500.0,-1.0853794356722388,-3.964868476106684,92173.77823053647,0.0
31680.0,-1.0689824527142195,-3.984673114696643,91456.53706989107,0.0
31860.0,-1.052495979052099,-4.004555952991513,90735.7169983526,0.0
32040.0,-1.0359195138268897,-4.024534904002344,90011.30071563217,0.0
32220.0,-1.019252771061411,-4.044625423472,89283.26813940721,0.0
32400.0,-1.0024956899398902,-4.064840457300029,88551.5968570932,0.0
32580.0,-0.9856484444912719,-4.085190396222221,87816.2625857732,0.0
32760.0,-0.9687114526335608,-4.105683038004143,87077.23963893246,0.0
32940.0,-0.9516853845389203,-4.126323557375454,86334.50139860487,0.0
33120.0,-0.9345711702819408,-4.147114483897744,85588.02079150328,0.0
33300.0,-0.917370006736407,-4.168055687922772,84837.77076767718,0.0
33480.0,-0.900083363689091,-4.189144374760798,84083.72478022023,0.0
33660.0,-0.8827129891424483,-4.210375087140378,83325.85726453496,0.0
33840.0,-0.8652609137817103,-4.231739716001669,82564.14411565466,0.0
34020.0,-0.8477294545855926,-4.253227519625722,81798.56316212204,0.0
34200.0,-0.8301212175637387,-4.274825151061968,81029.09463493088,0.0
34380.0,-0.812439099608034,-4.2965166937763,80255.72163005115,0.0
34560.0,-0.7946862894490044,-4.318283705402276,79478.43056307874,0.0
34740.0,-0.776866267712671,-4.340105269439015,78697.21161457972,0.0
34920.0,-0.7589828060774191,-4.361958054701182,77912.05916473351,0.0
35100.0,-0.7410399655345855,-4.3838163822895435,77122.97221592139,0.0
35280.0,-0.7230420937606392,-4.405652299814985,76329.9548019547,0.0
35460.0,-0.7049938216128678,-4.427435662575484,75533.0163826911,0.0
35640.0,-0.6869000587644822,-4.449134221353307,74732.17222284751,0.0
35820.0,-0.6687659884989017,-4.470713716470717,73927.44375388278,0.0
36000.0,-0.650597061686679,-4.492137977714894,73118.85891789409,0.0
36180.0,-0.6323989899720648,-4.513369029718516,72306.45249254476,0.0
36360.0,-0.6141777381995369,-4.534367202360519,71490.26639611987,0.0
36540.0,-0.5959395161137313,-4.555091245732687,70670.34997188799,0.0
36720.0,-0.5776907693690931,-4.575498449201549,69846.76025103171,0.0
36900.0,-0.5594381698881699,-4.595544764082458,69019.56219349687,0.0
37080.0,-0.5411886056098343,-4.61518492943238,68188.82890619904,0.0
37260.0,-0.522949169670773,-4.634372600461427,67354.64183811597,0.0
37440.0,-0.5047271490653708,-4.65306047905941,66517.09095188529,0.0
37620.0,-0.4865300128305927,-4.671200445932666,65676.27487161741,0.0
37800.0,-0.46836539980364794,-4.688743693849015,64832.301006724585,0.0
37980.0,-0.4502411060011086,-4.705640861493539,63985.28565165575,0.0
38160.0,-0.4321650716687358,-4.721842167445763,63135.354061515514,0.0
38340.0,-0.4141453680515522,-4.737297543799414,62282.64050363162,0.0
38520.0,-0.39619018393372085,-4.751956768958645,61427.28828521907,0.0
38700.0,-0.37830781199749774,-4.765769599159958,60569.449757370276,0.0
38880.0,-0.36050663505000285,-4.778685898286444,59709.286295678714,0.0
39060.0,-0.342795112165749,-4.79065576555996,58846.96825787792,0.0
39240.0,-0.32518176479184824,-4.801629660718197,57982.67491894864,0.0
39420.0,-0.30767516286155155,-4.811558526305721,57116.59438421361,0.0
39600.0,-0.29028391096032435,-4.820393906731972,56248.92348100185,0.0
39780.0,-0.27301663458701014,-4.828088063774228,55379.867629522494,0.0
39960.0,-0.255881966550822,-4.83459408822881,54509.64069364131,0.0
40140.0,-0.23888853354293282,-4.839866007440681,53638.46481230199,0.0
40320.0,-0.22204494291934598,-4.843858888468028,52766.570212377745,0.0
40500.0,-0.20535976972952422,-4.846528936665562,51894.195003777946,0.0
40680.0,-0.18884154402295922,-4.847833589497427,51021.58495766841,0.0
40860.0,-0.17249873846350589,-4.847731605417584,50148.993268693244,0.0
41040.0,-0.15633975627888974,-4.846183147682063,49276.68030211047,0.0
41220.0,-0.140372919570352,-4.843149862983738,48404.9133267734,0.0
41400.0,-0.1246064580049296,-4.838594954826046,47533.966234904714,0.0
41580.0,-0.10904849791042043,-4.832483251576422,46664.119249620955,0.0
41760.0,-0.09370705179062948,-4.82478126916478,45795.65862117129,0.0
41940.0,-0.07859000827609101,-4.815457268414774,44928.876312856635,0.0
42120.0,-0.0637051225230968,-4.804481307017893,44064.06967759341,0.0
42300.0,-0.04906000707155454,-4.791825286180948,43201.54112608084,0.0
42480.0,-0.034662123169967564,-4.777462991997073,42341.597787521365,0.0
42660.0,-0.020518772573669207,-4.761370131608783,41484.551163831784,0.0
42840.0,-0.006637089820379802,-4.743524364248263,40630.716778267095,0.0
43020.0,0.00697596501481834,-4.723905327255975,39780.41381936102,0.0
43200.0,0.02031361308486202,-4.702494657192659,38933.964781066345,0.0
43380.0,0.03336926305798166,-4.6792760061730805,38091.69509995519,0.0
43560.0,0.04613651693005811,-4.654235053560778,37253.932790314255,0.0
43740.0,0.05860917536678896,-4.627359513174059,36421.008077942926,0.0
43920.0,0.07078124258181322,-4.598639136161758,35593.25303343381,0.0
44100.0,0.08264693075825116,-4.568065709715177,34771.001205685076,0.0
44280.0,0.09420066402230443,-4.535633051788996,33954.587256363055,0.0
44460.0,0.10543708197863717,-4.501337002009107,33144.346596001415,0.0
44640.0,0.1163510428182181,-4.465175408949224,32340.615022390553,0.0
44820.0,0.1269376260101539,-4.427148113961359,31543.728361877507,0.0
45000.0,0.13719213458978302,-4.3872569317468315,30754.02211416308,0.0
45180.0,0.14711009705593495,-4.34550562785573,29971.831101149048,0.0
45360.0,0.1566872688907943,-4.301899893302396,29197.489120354618,0.0
45540.0,0.1659196337162447,-4.256447316484213,28431.32860338746,0.0
45720.0,0.17480340410090991,-4.209157352588667,27673.6802799215,0.0
45900.0,0.18333502203237012,-4.160041290672111,26924.87284760052,0.0
46080.0,0.19151115906920066,-4.109112218589869,26185.232648254343,0.0
46260.0,0.19932871618757855,-4.056384985954449,25455.08335078254,0.0
46440.0,0.2067848233372255,-4.001876165294034,24734.745641029614,0.0
46620.0,0.21387683872141222,-3.945604011578998,24024.536918945396,0.0
46800.0,0.22060234781564392,-3.887588420279359,23324.77100329511,0.0
46980.0,0.22695916213948392,-3.827850884110262,22635.757844155265,0.0
47160.0,0.23294531779576194,-3.7664144486176165,21957.803243404094,0.0
47340.0,0.2385590737911473,-3.70330366674925,21291.20858338923,0.0
47520.0,0.2437989101517739,-3.638544552551683,20636.270563929927,0.0
47700.0,0.24866352584725598,-3.57216453412552,19993.280947787334,0.0
47880.0,0.2531518365360723,-3.5041924059669296,19362.526314713286,0.0
48060.0,0.25726297214488597,-3.4346582808151007,18744.287824166568,0.0
48240.0,0.2609962742939544,-3.3635935411203706,18138.840986764902,0.0
48420.0,0.2643512935803316,-3.2910307902397964,17546.45544452174,0.0
48600.0,0.2673277867301112,-3.2170038034616217,16967.39475989865,0.0
48780.0,0.26992571363047846,-3.1415474789528974,16401.916213687127,0.0
48960.0,0.27214523425186454,-3.0646977887182536,15850.270611717842,0.0
49140.0,0.27398670546999726,-2.98649172965189,15312.702100380502,0.0
49320.0,0.2754506777971546,-2.906967274758174,14789.44799092403,0.0
49500.0,0.27653789203142776,-2.826163324610535,14280.738592494134,0.0
49680.0,0.277249275832305,-2.7441196591124735,13786.797053853888,0.0
49860.0,0.2775859402303957,-2.6608768896184274,13307.839213722571,0.0
50040.0,0.27754917607862273,-2.57647641146722,12844.073459658472,0.0
50220.0,0.27714045045173513,-2.4909603569750383,12395.700595402965,0.0
50400.0,0.27636140300050904,-2.404371548929848,11962.913716595593,0.0
50580.0,0.27521384226654855,-2.31675345462436,11545.898094763208,0.0
50760.0,0.27369974196313684,-2.2281501404595967,11144.83106948048,0.0
50940.0,0.27182123722714596,-2.138606227146799,10759.881948594057,0.0
51120.0,0.269580620846584,-2.048166845530981,10391.21191639848,0.0
51300.0,0.2669803394679339,-1.9568775930552962,10038.973949648527,0.0
51480.0,0.2640229897870383,-1.8647844908814195,9703.312741289872,0.0
51660.0,0.26071131472688946,-1.7719339416776028,9384.364631787903,0.0
51840.0,0.2570481996053088,-1.6783726880822663,9082.257547933095,0.0
