t(s),Tsurface(蚓),Flux(W),E(J),f_liq
0.0,0.0,38.400000000000034,0.0,0.5
180.0,-0.03835043444098011,38.36161421685439,6905.090559033791,0.46164956555901987
360.0,-0.07416576206249072,38.33712033427274,13805.772219202885,0.4258342379375093
540.0,-0.10775738649903219,38.32376392101929,20704.04972498636,0.3922426135009678
720.0,-0.1393639733581866,38.31941699238462,27601.544783615587,0.3606360266418134
900.0,-0.16918157465548733,38.32230616312772,34499.55989297858,0.33081842534451267
1080.0,-0.1973786635321937,38.33087826816606,41399.11798124847,0.3026213364678063
1260.0,-0.22410315574781836,38.343740182762104,48300.99121414565,0.27589684425218164
1440.0,-0.24948615162631774,38.359628899336776,55205.72441602627,0.2505138483736823
1620.0,-0.27364433627072243,38.37739369809586,62113.655281683525,0.22635566372927757
1800.0,-0.2966817726505625,38.39598351244918,69024.93231392438,0.2033182273494375
1980.0,-0.31869136881142096,38.41443687108088,75939.53095071894,0.18130863118857904
2160.0,-0.33975613351667583,38.43187338320279,82857.26815969544,0.16024386648332417
2340.0,-0.35995027268082086,38.44748632135142,89777.8156975387,0.14004972731917914
2520.0,-0.3793401552358988,38.460536078361464,96700.71219164376,0.12065984476410119
2700.0,-0.39798516734136424,38.47034436311632,103625.3741770047,0.10201483265863576
2880.0,-0.4159384693118275,38.4762890378738,110551.10620382198,0.08406153068817251
3060.0,-0.4332476671013179,38.47779951930586,117477.11011729704,0.0667523328986821
3240.0,-0.44995540847717747,38.474352677241285,124402.49359920048,0.050044591522822535
3420.0,-0.46609991270568096,38.46546917366938,131326.27805046097,0.03390008729431904
3600.0,-0.4817154414861275,38.450710191449325,138247.40588492184,0.018284558513872506
3780.0,-0.4968327179394509,38.42967450802112,145164.74729636565,0.0031672820605491148
3960.0,-0.526144791419073,38.235647475776155,152047.16384200536,0.0
4140.0,-0.5533700015950196,38.05132750758708,158896.40279337103,0.0
4320.0,-0.5787533026682106,37.874245352195736,165713.76695676625,0.0
4500.0,-0.6025035021994951,37.70228179889049,172500.17768056653,0.0
4680.0,-0.6247986920683867,37.533618930642696,179256.2290880822,0.0
4860.0,-0.6457909393093123,37.36669740483228,185982.23462095202,0.0
5040.0,-0.6656102711211265,37.200179784822495,192678.26698222006,0.0
5220.0,-0.684368044575533,37.03291924985587,199344.1924471941,0.0
5400.0,-0.7021597916304838,36.86393294937616,205979.70037808182,0.0
5580.0,-0.7190676203193291,36.69237932561977,212584.32865669337,0.0
5760.0,-0.735162241730726,36.51753881193141,219157.48564284103,0.0
5940.0,-0.7505046818630325,36.33879739740327,225698.4691743736,0.0
6120.0,-0.7651477282057414,36.15563262338105,232206.4830465822,0.0
6300.0,-0.7791371530086382,35.967601642558364,238680.6513422427,0.0
6480.0,-0.7925127485215773,35.77433102725135,245120.03092714795,0.0
6660.0,-0.8053092038617625,35.575508061055274,251523.6223781379,0.0
6840.0,-0.8175568484343713,35.370873288532955,257890.37957007383,0.0
7020.0,-0.8292822828570641,35.1602141319259,264219.2181138205,0.0
7200.0,-0.84050891499976,34.94335941300341,270509.0228081611,0.0
7380.0,-0.8512574159466282,34.720174642870006,276758.6542438777,0.0
7560.0,-0.8615461083319644,34.49055796349058,282966.954677306,0.0
7740.0,-0.8713912975235789,34.254436642453506,289132.7532729476,0.0
7920.0,-0.8808075544659782,34.01176403753498,295254.87079970393,0.0
8100.0,-0.8898079576002283,33.76251696038837,301332.12385257386,0.0
8280.0,-0.8984043001052407,33.50669337948536,307363.3286608812,0.0
8460.0,-0.90660726772051,33.24431041159638,313347.30453496857,0.0
8640.0,-0.9144265915829883,32.9754025588539,319282.8769955623,0.0
8820.0,-0.9218711798155366,32.70002015501345,325168.8806234647,0.0
9000.0,-0.9289492310200546,32.41822799009299,331004.1616616814,0.0
9180.0,-0.935668332337172,32.13010408728285,336787.58039739233,0.0
9360.0,-0.9420355443213367,31.83573861000917,342518.013347194,0.0
9540.0,-0.9480574745327239,31.535232880410994,348194.355265668,0.0
9720.0,-0.9537403414550959,31.2286984933522,353815.5209944714,0.0
9900.0,-0.9590900301027283,30.91625651250542,359380.4471667224,0.0
10080.0,-0.9641121404723759,30.598036737097143,364888.0937793999,0.0
10260.0,-0.9688120298217421,30.274177029634412,370337.4456447341,0.0
10440.0,-0.9731948496088492,29.944822696397697,375727.5137300857,0.0
10620.0,-0.9772655778026713,29.610125913728112,381057.33639455674,0.0
10800.0,-0.9810290471707172,29.27024519418435,386325.98052950995,0.0
10980.0,-0.9844899700608606,28.9253448875329,391532.5426092659,0.0
11160.0,-0.9876529601200059,28.575594712286264,396676.1496574774,0.0
11340.0,-0.9905225513289778,28.22116931413857,401755.96013402235,0.0
11520.0,-0.9931032146795061,27.86224784818645,406771.1647466959,0.0
11700.0,-0.9953993727738186,27.49901358227736,411720.98719150585,0.0
11880.0,-0.9974154125888504,27.131653519211586,416604.6848249639,0.0
12060.0,-0.9991556966143634,26.760358035851848,421421.54927141726,0.0
12240.0,-1.0006245725464313,26.385320537469607,426170.9069681618,0.0
12420.0,-1.0018263816940152,26.006737125890684,430852.11965082213,0.0
12600.0,-1.0027654662360956,25.62480628020123,435464.58478125837,0.0
12780.0,-1.0034461754495214,25.23972854894509,440007.73592006846,0.0
12960.0,-1.0038728710128724,24.85170625288418,444481.0430455876,0.0
13140.0,-1.0040499314789142,24.46094319751662,448884.0128211406,0.0
13320.0,-1.003981755997254,24.067644394650742,453216.18881217774,0.0
13500.0,-1.0036727673593555,23.67201579242223,457477.15165481373,0.0
13680.0,-1.0031274144299174,23.274264013215028,461666.5191771924,0.0
13860.0,-1.0023501740215346,22.874596099014994,465783.94647501514,0.0
14040.0,-1.0013455522634285,22.473219263777896,469829.1259424952,0.0
14220.0,-1.0001180855096838,22.07034065244415,473801.7872599351,0.0
14400.0,-0.9986723408277633,21.666167106272642,477701.6973390642,0.0
14580.0,-0.9970129161039921,21.260904934202937,481528.66022722074,0.0
14760.0,-0.995144439799112,20.854759689988686,485282.5169714187,0.0
14940.0,-0.9930715703838767,20.447935954870033,488963.1454432953,0.0
15120.0,-0.9907989954818522,20.04063712558143,492570.46012589993,0.0
15300.0,-0.988331430744162,19.63306520751,496104.4118632517,0.0
15480.0,-0.9856736184787217,19.225420612843298,499564.98757356347,0.0
15660.0,-0.9795118971994317,18.857833610482626,502959.3976234503,0.0
15840.0,-0.9777971288972699,18.43477240630619,506277.65665658546,0.0
16020.0,-0.9759605027485683,18.011727765375706,509519.7676543531,0.0
16200.0,-0.9734805898506728,17.595150539877856,512686.89475153113,0.0
16380.0,-0.9703537941560897,17.18525138340837,515780.24000054464,0.0
16560.0,-0.966635936562234,16.781534206490402,518800.9161577129,0.0
16740.0,-0.9623836211968776,16.3834994895568,521749.94606583315,0.0
16920.0,-0.9576475897103944,15.990722444872516,524628.2761059102,0.0
17100.0,-0.9524727270229671,15.602851726137413,527436.7894166149,0.0
17280.0,-0.946898809708076,15.219599460384764,530176.3173194842,0.0
17460.0,-0.9409612389986277,14.840731616540795,532847.6490104615,0.0
17640.0,-0.9346916746002755,14.466059681544857,535451.5397531396,0.0
17820.0,-0.9281185726739647,14.095433582664326,537988.7177980192,0.0
18000.0,-0.921267641042218,13.728735683197744,540459.8902209948,0.0
18180.0,-0.9141622241582912,13.365875687728938,542865.747844786,0.0
18360.0,-0.9068236286822109,13.006786315577509,545206.96938159,0.0
18540.0,-0.899271398869363,12.651419622543177,547484.2249136477,0.0
18720.0,-0.8915235495530335,12.299743869658062,549698.1788101862,0.0
18900.0,-0.8835967632904226,11.951740853505683,551849.4921638173,0.0
19080.0,-0.8755065572166545,11.607403626074305,553938.8248165107,0.0
19260.0,-0.8672674242861026,11.266734543439764,555966.8370343298,0.0
19440.0,-0.8588929528505891,10.929743592131626,557934.1908809135,0.0
19620.0,-0.8503959279087122,10.596446950102477,559841.551331932,0.0
19800.0,-0.8417884168417459,10.266865746021587,561689.5871662159,0.0
19980.0,-0.8330818420141661,9.941024986351849,563478.9716637592,0.0
20160.0,-0.8242870422480805,9.618952624506338,565210.3831361703,0.0
20340.0,-0.8154143248698843,9.300678750460357,566884.5053112532,0.0
20520.0,-0.8064735097653023,8.986234882634673,568502.0275901275,0.0
20700.0,-0.7974739666578732,8.675653346765685,570063.6451925454,0.0
20880.0,-0.7884246466395194,8.368966728923926,571570.0592037517,0.0
21060.0,-0.7793341088246043,8.066207391903918,573021.9765342944,0.0
21240.0,-0.770210542866297,7.767407045946577,574420.1098025648,0.0
21420.0,-0.7610617879622149,7.472596366221669,575765.1771484847,0.0
21600.0,-0.7518953488819872,7.181804650732931,577057.9019856167,0.0
21780.0,-0.7427184094698115,6.89505951335128,578299.0126980199,0.0
21960.0,-0.7335378440079283,6.612386607559464,579489.2422873805,0.0
22140.0,-0.7243602267703141,6.333809377232435,580629.3279752823,0.0
22320.0,-0.7151918400480733,6.0593488314025725,581720.0107649348,0.0
22500.0,-0.7060386808876755,5.789023340484405,582762.034966222,0.0
22680.0,-0.6969064667491187,5.522848451877607,583756.14768756,0.0
22860.0,-0.6878006402623184,5.260836723240356,584703.0982977432,0.0
23040.0,-0.6787263732357305,5.0029975720390905,585603.6378607103,0.0
23220.0,-0.669688570050643,4.74933714024511,586458.5185459544,0.0
23400.0,-0.6606918705571925,4.499858173270464,587268.4930171431,0.0
23580.0,-0.6517406525734175,4.254559912420655,588034.3138013788,0.0
23760.0,-0.64283903407617,4.013438000297319,588756.7326414323,0.0
23940.0,-0.6339908751620796,3.7764843987127845,589436.4998332006,0.0
24120.0,-0.6251997798477209,3.543687318784987,590074.3635505819,0.0
24300.0,-0.6164690977704,3.3150311629691096,590671.0691599163,0.0
24480.0,-0.6078019258443592,3.0904964788529328,591227.3585261098,0.0
24660.0,-0.5992011099214726,2.870059924600421,591743.9693125379,0.0
24840.0,-0.5906692465005738,2.653694245972162,592221.6342768129,0.0
25020.0,-0.5822086845252371,2.4413682648854507,592661.0805644923,0.0
25200.0,-0.5738215273060336,2.233046879501315,593063.0290028024,0.0
25380.0,-0.5655096345999295,2.028691075841973,593428.193396454,0.0
25560.0,-0.557274624876463,1.8282579509511705,593757.2798276251,0.0
25740.0,-0.5491178777976105,1.6317007476122338,594050.9859621953,0.0
25920.0,-0.5410405369357241,1.438968900635466,594310.0003643098,0.0
26100.0,-0.5408978513542765,1.1899069829853872,594524.1836212472,0.0
26280.0,-0.540225749156836,0.9502222700362027,594695.2236298537,0.0
26460.0,-0.5390973200081658,0.7191563512648912,594824.6717730814,0.0
26640.0,-0.5375753616479865,0.4960445442501415,594913.9597910465,0.0
26820.0,-0.5357137514048523,0.2803020228184209,594964.4141551538,0.0
27000.0,-0.5335587347560976,0.0714112188921918,594977.2681745543,0.0
27180.0,-0.5311500505093314,-0.13108897852103019,594953.6721584206,0.0
27360.0,-0.528521892622806,-0.3276123213257167,594894.7019405819,0.0
27540.0,-0.5257037259542015,-0.5185328111667681,594801.3660345719,0.0
27720.0,-0.5227209762029936,-0.7041910419654588,594674.6116470181,0.0
27900.0,-0.5195956130793709,-0.8848994773906695,594515.3297410877,0.0
28080.0,-0.5163466433883405,-1.0609468363175827,594324.3593105506,0.0
28260.0,-0.5129905282835873,-1.232601732294619,594102.4909987376,0.0
28440.0,-0.5095415367377713,-1.4001156892902782,593850.4701746653,0.0
28620.0,-0.5060120453659024,-1.563725635801323,593568.9995602211,0.0
28800.0,-0.5024127931167417,-1.723655962467008,593258.7414869771,0.0
28980.0,-0.5005747377307326,-1.8924851136106975,592918.0941665272,0.0
29160.0,-0.49862587461563057,-2.0575157215519355,592547.7413366478,0.001374125384369429
29340.0,-0.49657652994976637,-2.2189830185687565,592148.3243933053,0.0034234700502336346
29520.0,-0.4944359771679833,-2.377113114597098,591720.4440326779,0.00556402283201668
29700.0,-0.492212525888694,-2.5321236091758084,591264.6617830263,0.007787474111305981
29880.0,-0.48991361294666974,-2.6842241766499857,590781.5014312293,0.010086387053330259
30060.0,-0.48754588700997403,-2.8336170712225934,590271.4503584092,0.012454112990025967
30240.0,-0.48511528532025056,-2.980497546884662,589734.96079997,0.014884714679749445
30420.0,-0.48262710273372034,-3.125054198045919,589172.4510443216,0.017372897266279663
30600.0,-0.4800860537009503,-3.2674692293456116,588584.3065830395,0.01991394629904969
30780.0,-0.4774963279174316,-3.407918663304302,587970.8812236447,0.022503672082568427
30960.0,-0.4748616403503591,-3.546572493890234,587332.4981747444,0.025138359649640896
31140.0,-0.47218527628435014,-3.6835947932938238,586669.4511119515,0.02781472371564986
31320.0,-0.46947013195956905,-3.819143778427801,585982.0052318345,0.030529868040430952
31500.0,-0.4667187513096939,-3.953371842957732,585270.3983001021,0.033281248690306076
31680.0,-0.4639333592472255,-4.08642556003222,584534.8416992963,0.03606664075277449
31860.0,-0.4611158918902449,-4.218445660321257,583775.5214804384,0.03888410810975512
32040.0,-0.45826802407749434,-4.3495669894784115,582992.5994223322,0.04173197592250566
32220.0,-0.45539119447699716,-4.479918448709226,582186.2141015646,0.04460880552300284
32400.0,-0.4524866285567283,-4.609622921747824,581356.48197565,0.047513371443271724
32580.0,-0.44955535965351134,-4.738797191207736,580503.4984812326,0.050444640346488656
32760.0,-0.4465982483478354,-4.867551846977557,579627.3391487766,0.0534017516521646
32940.0,-0.443616000327188,-4.995991189069622,578728.0607347441,0.05638399967281199
33120.0,-0.4406091828983909,-5.124213127097623,577805.7023718664,0.059390817101609095
33300.0,-0.43757824028993514,-5.252309078352432,576860.286737763,0.06242175971006486
33480.0,-0.43452350786812993,-5.380363866259622,575891.8212418363,0.06547649213187007
33660.0,-0.431445225375741,-5.508455620837244,574900.2992300856,0.06855477462425902
33840.0,-0.42834354928843527,-5.636655682621609,573885.7012072137,0.07165645071156473
34020.0,-0.4252185643725788,-5.765028511393966,572847.9960751628,0.07478143562742118
34200.0,-0.42207029451755473,-5.893631600917066,571787.1423869977,0.07792970548244527
34380.0,-0.4188987129066122,-6.022515400777303,570703.0896148578,0.08110128709338782
34560.0,-0.4157037515821958,-6.1517232463241704,569595.7794305194,0.0842962484178042
34740.0,-0.41248531045459325,-6.281291297601605,568465.1469969512,0.08751468954540675
34920.0,-0.40924326579647713,-6.411248488076269,567311.1222690975,0.09075673420352287
35100.0,-0.40597747826040675,-6.541616483882757,566133.6313019986,0.09402252173959325
35280.0,-0.4026878004515087,-6.672409654226678,564932.5975642378,0.0973121995484913
35460.0,-0.39937408408328695,-6.803635053510396,563707.9432546059,0.10062591591671305
35640.0,-0.3960361867407839,-6.935292415675296,562459.5906197843,0.10396381325921611
35820.0,-0.3926739782720264,-7.06737416118463,561187.4632707711,0.10732602172797362
36000.0,-0.3892873468258311,-7.1998654170061736,559891.48749571,0.1107126531741689
36180.0,-0.38587620455153937,-7.332744049889536,558571.5935667299,0.11412379544846063
36360.0,-0.38244049297407184,-7.465980713172085,557227.7170383589,0.11755950702592816
36540.0,-0.37898018805581185,-7.599538907288103,555859.800035047,0.12101981194418815
36720.0,-0.3754953049551896,-7.733375054098054,554467.7925253094,0.12450469504481038
36900.0,-0.3719859024904417,-7.867438585099221,553051.6535799915,0.12801409750955828
37080.0,-0.3684520873158253,-8.001672043524916,551611.352612157,0.1315479126841747
37260.0,-0.36489401781655134,-8.136011200286378,550146.8705961055,0.13510598218344866
37440.0,-0.3613119077278529,-8.270385183661256,548658.2012630465,0.13868809227214712
37620.0,-0.3577060294828995,-8.404716622582297,547145.3522709816,0.14229397051710052
37800.0,-0.35407671729369666,-8.538921803332622,545608.3463463818,0.14592328270630334
37980.0,-0.3504243699686497,-8.672910839407503,544047.2223952885,0.14957563003135033
38160.0,-0.3467494534701186,-8.806587854257636,542462.0365815222,0.1532505465298814
38340.0,-0.3430525032150292,-8.939851176586716,540852.8633697366,0.15694749678497077
38520.0,-0.3393341261214242,-9.072593547834394,539219.7965311264,0.16066587387857578
38700.0,-0.3355950024037338,-9.204702341436661,537562.9501096677,0.1644049975962662
38880.0,-0.3318358871195007,-9.336059793418439,535882.4593468524,0.16816411288049932
39060.0,-0.32805761147031115,-9.466543243837569,534178.4815629616,0.17194238852968885
39240.0,-0.32426108385974667,-9.596025388566364,532451.1969930197,0.17573891614025333
39420.0,-0.3204472907112801,-9.724374540865307,530700.8095756639,0.1795527092887199
39600.0,-0.3166172970491841,-9.851454902174833,528927.5476932724,0.18338270295081588
39780.0,-0.3127722468457013,-9.977126841524008,527131.664861798,0.18722775315429868
39960.0,-0.30891336313792717,-10.101247182930726,525313.4403688705,0.19108663686207283
40140.0,-0.30504194791808786,-10.223669500146004,523473.1798588442,0.19495805208191214
40320.0,-0.30115938180114127,-10.344244418074554,521611.21586359077,0.19884061819885873
40500.0,-0.2972671234738922,-10.462819920187483,519727.908277957,0.20273287652610777
40680.0,-0.2933667089300842,-10.579241661227583,517823.64477893605,0.2066332910699158
40860.0,-0.28945975049621175,-10.693353284494952,515898.84118772694,0.21054024950378825
41040.0,-0.28554793565308406,-10.804996742992008,513953.94177398836,0.21445206434691594
41220.0,-0.2816330256584546,-10.914012623697987,511989.41950172273,0.2183669743415454
41400.0,-0.27771685397632095,-11.020240474239566,510005.77621635963,0.22228314602367905
41580.0,-0.27380132451877986,-11.12351913122068,508003.5427727399,0.22619867548122014
41760.0,-0.2698884097066001,-11.223687049475279,505983.27910383436,0.2301115902933999
41940.0,-0.26598014835494777,-11.320582631508769,503945.5742301628,0.23401985164505223
42120.0,-0.2620786433909528,-11.414044556398853,501891.046210011,0.23792135660904717
42300.0,-0.258186059410062,-11.50391210743312,499820.34203067305,0.241813940589938
42480.0,-0.25430462007835136,-11.590025497770279,497734.1374410744,0.24569537992164864
42660.0,-0.2504366053881989,-11.672226193423167,495633.13672625826,0.2495633946118011
42840.0,-0.24658434877491853,-11.750357232875263,493518.0724243407,0.2534156512250815
43020.0,-0.24275023410215021,-11.824263542657555,491389.7049866624,0.25724976589784976
43200.0,-0.23893669252396732,-11.893792248230094,489248.82238198095,0.2610633074760327
43380.0,-0.23514619923181948,-11.958792979532154,487096.23964566516,0.26485380076818055
43560.0,-0.2313812700945593,-12.019118170584617,484932.7983749599,0.26861872990544067
43740.0,-0.22764445819991608,-12.074623352551555,482759.36617150065,0.2723555418000839
43920.0,-0.22393835030587367,-12.125167439691456,480576.8360323562,0.27606164969412633
44100.0,-0.22026556321048088,-12.170613007653774,478386.1256909785,0.27973443678951915
44280.0,-0.2166287400486759,-12.210826563602193,476188.17690953007,0.28337125995132406
44460.0,-0.21303054652473774,-12.245678807674787,473983.9547241486,0.28696945347526226
44640.0,-0.2094736670889876,-12.275044885318056,471774.44664479134,0.2905263329110124
44820.0,-0.2059608010673525,-12.298804630062518,469560.66181138007,0.2940391989326475
45000.0,-0.20249465875237443,-12.316842796335976,467343.6301080396,0.29750534124762557
45180.0,-0.19907795746419643,-12.329049281942858,465124.4012372899,0.30092204253580357
45360.0,-0.19571341758998817,-12.335319339866567,462904.0437561139,0.30428658241001183
45540.0,-0.1924037586101825,-12.335553779086032,460683.64407587843,0.3075962413898175
45720.0,-0.18915169511978885,-12.329659154125752,458464.3054281358,0.31084830488021115
45900.0,-0.1859599328529225,-12.317547943092988,456247.1467983791,0.3140400671470775
46080.0,-0.18283116471854605,-12.299138713985688,454033.30182986165,0.31716883528145395
46260.0,-0.1797680668552612,-12.274356279085817,451823.9176996262,0.3202319331447388
46440.0,-0.1767732947128131,-12.243131837285071,449620.1539689149,0.3232267052871869
46620.0,-0.17384947916778185,-12.205403104219137,447423.18141015543,0.3261505208322182
46800.0,-0.17099922268073134,-12.161114430118108,445234.1808127342,0.3290007773192687
46980.0,-0.16822509550187137,-12.110216905308555,443054.34176977864,0.33177490449812863
