t(s),Tsurface(蚓),Flux(W),E(J),f_liq
0.0,-2.0,19.200000000000017,0.0,0.0
180.0,-2.4970305549388114,14.552330684331597,2619.4195231796875,0.0
360.0,-2.684984838023838,12.836010123707046,4929.901345446956,0.0
540.0,-2.789090522544907,11.909765900741215,7073.659207580375,0.0
720.0,-2.855014156884341,11.340814461072688,9115.005810573459,0.0
900.0,-2.900147412612261,10.964353888625753,11088.589510526095,0.0
1080.0,-2.9333165311301994,10.696290813782015,13013.921857006859,0.0
1260.0,-2.9594198644914673,10.489589769846003,14902.04801557914,0.0
1440.0,-2.98124433565585,10.317264051223406,16759.155544799352,0.0
1620.0,-3.0003854821563825,10.163734444978708,18588.62774489552,0.0
1800.0,-3.017757500436536,10.02000461684873,20392.22857592829,0.0
1980.0,-3.03388374028441,9.880889953511806,22170.788767560414,0.0
2160.0,-3.049063358534234,9.74341370139181,23924.60323381094,0.0
2340.0,-3.0634670572656533,9.605877359743308,25653.661158564737,0.0
2520.0,-3.0771920619210733,9.467322075061706,27357.779132075844,0.0
2700.0,-3.0902936639637977,9.327216854826801,29036.678165944668,0.0
2880.0,-3.1028032981588076,9.185278262115126,30690.02825312539,0.0
3060.0,-3.1147388905468736,9.041366245628964,32317.474177338605,0.0
3240.0,-3.126110774389748,8.895424006236407,33918.65049846116,0.0
3420.0,-3.1369250675049667,8.74744330444682,35493.190293261585,0.0
3600.0,-3.1471855970843867,8.597444448748785,37040.730294036366,0.0
3780.0,-3.156894994318445,8.44546474610094,38560.913948334535,0.0
3960.0,-3.1660553150249604,8.291551824830899,40053.3932768041,0.0
4140.0,-3.1746683899422714,8.135759760250592,41517.8300336492,0.0
4320.0,-3.182736021008563,7.978146811120584,42953.89645965091,0.0
4500.0,-3.190260089997273,7.818774081425469,44361.2757943075,0.0
4680.0,-3.1972426173395707,7.6577047136219685,45739.66264275945,0.0
4860.0,-3.203685792677181,7.495003387369268,47088.76325248592,0.0
5040.0,-3.2095919894027003,7.330735994216711,48408.29573144493,0.0
5220.0,-3.2149637701555385,7.164969414098835,49697.99022598272,0.0
5400.0,-3.2198038872322243,6.997771351233783,50957.589069204805,0.0
5580.0,-3.2241152801589754,6.829210205200829,52186.846906140956,0.0
5760.0,-3.2279010717026946,6.659354963367719,53385.530799547145,0.0
5940.0,-3.231164563044962,6.488275106775398,54553.420318766715,0.0
6120.0,-3.2339092285306563,6.31604052497241,55690.30761326175,0.0
6300.0,-3.236138710225359,6.142721437218143,56795.99747196102,0.0
6480.0,-3.2378568124149343,5.968388318567532,57870.30736930318,0.0
6660.0,-3.2390674961234898,5.793111829970266,58913.06749869783,0.0
6840.0,-3.2397748736932526,5.616962751866892,59924.120794033865,0.0
7020.0,-3.239983203451326,5.440011920959984,60903.32293980666,0.0
7200.0,-3.2396968844774308,5.262330169948478,61850.54237039739,0.0
7380.0,-3.2389204514804923,5.083988270072668,62765.66025901047,0.0
7560.0,-3.2376585697881413,4.905056876350562,63648.57049675357,0.0
7740.0,-3.2359160304508863,4.72560647540262,64499.179662326045,0.0
7920.0,-3.2336977454612255,4.545707335770848,65317.4069827648,0.0
8100.0,-3.231008743086969,4.365429460641866,66103.18428568033,0.0
8280.0,-3.2278541633173035,4.184842542885153,66856.45594339965,0.0
8460.0,-3.22423925341961,4.0040159223175475,67577.1788094168,0.0
8640.0,-3.2201693636045907,3.823018545105389,68265.32214753577,0.0
8820.0,-3.2156499427969045,3.6419189252144335,68920.86755407437,0.0
9000.0,-3.2106865345082354,3.460785107817966,69543.80887348161,0.0
9180.0,-3.2052847728094016,3.2796846345727193,70134.15210770471,0.0
9360.0,-3.1994503783979265,3.0986845106725323,70691.91531962577,0.0
9540.0,-3.19318915475726,2.917851173589605,71217.1285308719,0.0
9720.0,-3.186506984403703,2.737250463413335,71709.8336142863,0.0
9900.0,-3.1794098252168537,2.5569475946979177,72170.08418133193,0.0
10080.0,-3.17190370684938,2.3770071297295714,72597.94546468325,0.0
10260.0,-3.1639947272116595,2.1974929531262024,72993.49419624596,0.0
10440.0,-3.1556890490268708,2.0184682476826534,73356.81848082884,0.0
10620.0,-3.1469928964519216,1.8399954713759206,73688.0176656765,0.0
10800.0,-3.1379125517596074,1.6621363354465508,73987.20220605687,0.0
10980.0,-3.1284543520773034,1.4849517834729133,74254.493527082,0.0
11160.0,-3.1186246861774567,1.3085019713574784,74490.02388192635,0.0
11340.0,-3.1084299913151154,1.1328462481451296,74693.93620659247,0.0
11520.0,-3.0978767501077016,0.958043137595704,74866.3839713597,0.0
11700.0,-3.086971487452254,0.7841503204342075,75007.53102903785,0.0
11880.0,-3.0757207674753246,0.6112246172044106,75117.55146013465,0.0
12060.0,-3.064131190510755,0.43932197165308406,75196.6294150322,0.0
12240.0,-3.0522093901005616,0.26849743457406555,75244.95895325554,0.0
12420.0,-3.039962030014176,0.09880514804355457,75262.74387990338,0.0
12600.0,-3.027395801281349,-0.0697016700204099,75250.19757929971,0.0
12780.0,-3.014517419234022,-0.2369707410388984,75207.54284591271,0.0
12960.0,-3.0013336205525625,-0.40295074075609927,75135.01171257661,0.0
13140.0,-2.987851160311789,-0.5675913140870591,75032.84527604094,0.0
13320.0,-2.974076809022281,-0.7308430898875237,74901.29351986118,0.0
13500.0,-2.960017349662542,-0.8926576957019691,74740.61513463482,0.0
13680.0,-2.9456795746976536,-1.0529877725437353,74551.07733557695,0.0
13860.0,-2.931070283080168,-1.211786989759047,74332.95567742032,0.0
14040.0,-2.916196277229036,-1.3690100600237398,74086.53386661605,0.0
14220.0,-2.9010643599825303,-1.524612754519938,73812.10357080246,0.0
14400.0,-2.885681331521179,-1.678551918336563,73509.96422550187,0.0
14580.0,-2.8700539862568824,-1.830785486135588,73180.42283799747,0.0
14760.0,-2.8541891096844982,-1.981272498122841,72823.79378833536,0.0
14940.0,-2.838093475192361,-2.1299731163600364,72440.39862739055,0.0
15120.0,-2.8217738408282695,-2.2768486414507345,72030.56587192942,0.0
15300.0,-2.8052369460177706,-2.4218615296314625,71594.63079659575,0.0
15480.0,-2.7884895082316126,-2.5649754102945845,71132.93522274273,0.0
15660.0,-2.7715382195995537,-2.7061551039676313,70645.82730402856,0.0
15840.0,-2.7543897434678275,-2.845366640769429,70133.66130869006,0.0
16020.0,-2.737050710897849,-2.9825772793603718,69596.7973984052,0.0
16200.0,-2.719527717103978,-3.1177555264005945,69035.60140365308,0.0
16380.0,-2.7018273178283896,-3.250871156525438,68450.4445954785,0.0
16560.0,-2.683956025651418,-3.381895232844126,67841.70345356656,0.0
16740.0,-2.665920306236006,-3.5108001279629253,67209.75943053323,0.0
16920.0,-2.6477265745052514,-3.6375595455299883,66554.99871233784,0.0
17100.0,-2.629381190752336,-3.7621485422940157,65877.81197472491,0.0
17280.0,-2.6108904566825477,-3.8845435506644463,65178.594135605315,0.0
17460.0,-2.5922606113874376,-4.00472240175525,64457.74410328937,0.0
17640.0,-2.5734978272516327,-4.122664348889683,63715.66452048923,0.0
17820.0,-2.5546082057932162,-4.238350091537055,62952.76150401256,0.0
18000.0,-2.5355977734390973,-4.3517617996473055,62169.44438007604,0.0
18180.0,-2.5164724772372615,-4.462883138342542,61366.125415174385,0.0
18360.0,-2.497238180508371,-4.571699292918779,60543.219542449006,0.0
18540.0,-2.4779006584396814,-4.678196994103995,59701.144083510284,0.0
18720.0,-2.458465593624875,-4.78236454351198,58840.31846567813,0.0
18900.0,-2.4389385715540426,-4.884191839224272,57961.16393461776,0.0
19080.0,-2.4193250760586515,-4.9836704014247575,57064.10326236131,0.0
19260.0,-2.3996304847170666,-5.080793398004076,56149.56045072057,0.0
19440.0,-2.3798600642268846,-5.17555567004288,55217.96043011286,0.0
19620.0,-2.3600189657511006,-5.2679537570749755,54269.72875383936,0.0
19800.0,-2.3401122202458833,-5.3579859220227455,53305.29128787526,0.0
19980.0,-2.3201447337785686,-5.4456521756890055,52325.07389625124,0.0
20160.0,-2.300121282845274,-5.530954300680495,51329.50212212875,0.0
20340.0,-2.280046509698443,-5.613895874629616,50319.00086469542,0.0
20520.0,-2.2599249176954608,-5.694482292571721,49293.99405203251,0.0
20700.0,-2.2397608666804185,-5.772720788326945,48254.90431013366,0.0
20880.0,-2.219558568412013,-5.848620454725911,47202.152628282995,0.0
21060.0,-2.1993220820514847,-5.922192262510292,46136.158021031144,0.0
21240.0,-2.179055309725478,-5.993449077730178,45057.33718703971,0.0
21420.0,-2.158761992179623,-6.062405677451708,43966.104165098404,0.0
21600.0,-2.138445704539591,-6.129078763580075,42862.86998765399,0.0
21780.0,-2.118109852197353,-6.193486974595136,41748.04233222687,0.0
21960.0,-2.097757666841243,-6.255650894988979,40622.02517112885,0.0
22140.0,-2.0773922026494147,-6.3155930621882606,39485.218419934965,0.0
22320.0,-2.0570163326670916,-6.373337970737228,38338.017585202266,0.0
22500.0,-2.0366327453889284,-6.428912073511786,37180.81341197014,0.0
22680.0,-2.0162439415685496,-6.482343779730037,36013.99153161873,0.0
22860.0,-1.9958522312781501,-6.533663449520882,34837.93211070498,0.0
23040.0,-1.9754597312416833,-6.582903384809077,33653.009501439345,0.0
23220.0,-1.9550683624658087,-6.630097816273647,32459.59189451009,0.0
23400.0,-1.9346798481932959,-6.67528288613575,31258.040975005653,0.0
23580.0,-1.9142957122040425,-6.718496626533589,30048.711582229607,0.0
23760.0,-1.8939172774891573,-6.7597789332437666,28831.951374245727,0.0
23940.0,-1.873545665323825,-6.799171534513363,27608.100498033324,0.0
24120.0,-1.8531817947647085,-6.836717954772306,26377.491266174307,0.0
24300.0,-1.8328263825975968,-6.872463473004127,25140.447841033565,0.0
24480.0,-1.8124799437608217,-6.906455075562552,23897.285927432305,0.0
24660.0,-1.7921427922695183,-6.938741403233652,22648.31247485025,0.0
24840.0,-1.7718150426653043,-6.969372692357757,21393.82539022585,0.0
25020.0,-1.751496612015169,-6.998400709841503,20134.113262454382,0.0
25200.0,-1.731187222482395,-7.025878681909581,18869.455099710656,0.0
25380.0,-1.7108864044912135,-7.051861216467364,17600.120080746532,0.0
25560.0,-1.6905935005054573,-7.076404218969124,16326.367321332089,0.0
25740.0,-1.6703076694399126,-7.099564801713374,15048.445657023682,0.0
25920.0,-1.6500278917211826,-7.121401186515393,13766.59344345091,0.0
26100.0,-1.6297529750128374,-7.141972600738867,12481.038375317916,0.0
26280.0,-1.6094815606172712,-7.1613391667020805,11191.997325311542,0.0
26460.0,-1.5892121305641458,-7.179561784510275,9899.676204099693,0.0
26640.0,-1.5689430153925055,-7.196702008404499,8604.269842586884,0.0
26820.0,-1.5486724026305942,-7.212821916757298,7305.961897570571,0.0
27000.0,-1.5283983459741848,-7.227983975888494,6004.924781910642,0.0
27180.0,-1.5081187751607223,-7.2422508979178115,4701.319620285436,0.0
27360.0,-1.4878315065329308,-7.255685492917234,3395.296231560334,0.0
27540.0,-1.467534254281649,-7.268350515672117,2086.9931387393526,0.0
27720.0,-1.4472246423536317,-7.28030850740796,776.5376074059197,0.0
27900.0,-1.4269002170058669,-7.291621632887587,-535.954286513846,0.0
28080.0,-1.4065584599836496,-7.302351513331756,-1850.377558913562,0.0
28260.0,-1.3861968022952365,-7.3125590556638915,-3166.6381889330623,0.0
28440.0,-1.3658126385514668,-7.322304278627044,-4484.65295908593,0.0
28620.0,-1.3454033418341755,-7.331646136366813,-5804.349263631956,0.0
28800.0,-1.324966279052791,-7.3406423401184675,-7125.6648848532805,0.0
28980.0,-1.3044988267439905,-7.349349178678668,-8448.54773701544,0.0
29160.0,-1.2839983872649647,-7.357821338381486,-9772.955577924107,0.0
29340.0,-1.2634624053265335,-7.366111723335066,-11098.855688124419,0.0
29520.0,-1.2428883848083265,-7.374271276707584,-12426.224517931783,0.0
29700.0,-1.2222739057943273,-7.382348803880256,-13755.04730263023,0.0
29880.0,-1.201616641763471,-7.390390798308436,-15085.317646325748,0.0
30060.0,-1.1809143768666686,-7.3984412709513565,-16417.037075096992,0.0
30240.0,-1.1601650232186556,-7.40654158414419,-17750.214560242945,0.0
30420.0,-1.139366638130433,-7.414730290793442,-19084.866012585764,0.0
30600.0,-1.1185174412059393,-7.423042979778677,-20421.013748945927,0.0
30780.0,-1.0976158312248359,-7.431512128437555,-21758.685932064687,0.0
30960.0,-1.0766604027320839,-7.440166963000357,-23097.91598540475,0.0
31140.0,-1.0556499622542892,-7.449033327820585,-24438.741984412456,0.0
31320.0,-1.0345835440626228,-7.458133564223136,-25781.20602597262,0.0
31500.0,-1.0134604254025468,-7.467486399758652,-27125.353577929178,0.0
31680.0,-0.992280141111589,-7.477106848613384,-28471.232810679587,0.0
31860.0,-0.9710424975479536,-7.487006123877281,-29818.893912977495,0.0
32040.0,-0.949747585754991,-7.497191562320363,-31168.38839419516,0.0
32220.0,-0.92839579378929,-7.507666562268329,-32519.76837540346,0.0
32400.0,-0.9069878181435327,-7.518430535103379,-33873.08587172207,0.0
32580.0,-0.8855246741991695,-7.529478870845606,-35228.39206847428,0.0
32760.0,-0.8640077056484478,-7.540802918195375,-36585.73659374945,0.0
32940.0,-0.8424385928303004,-7.552389979337143,-37945.16679003013,0.0
33120.0,-0.820819359930078,-7.56422331972227,-39306.72698758014,0.0
33300.0,-0.7991523809989851,-7.576282192962066,-40670.457782313315,0.0
33480.0,-0.7774403847553972,-7.588541880873869,-42036.39532087061,0.0
33660.0,-0.7556864581368249,-7.600973748633506,-43404.57059562464,0.0
33840.0,-0.7338940485782441,-7.613545314897073,-44775.00875230611,0.0
34020.0,-0.7120669649996039,-7.6262203366649235,-46147.728412905795,0.0
34200.0,-0.6902093774926316,-7.638958908571892,-47522.74101644874,0.0
34380.0,-0.6683258157044407,-7.651717576201078,-48900.05018016493,0.0
34560.0,-0.6464211659228495,-7.6644494629338,-50279.651083493016,0.0
34740.0,-0.6245006668756983,-7.677104409768266,-51661.529877251305,0.0
34920.0,-0.6025699042637247,-7.689629127462565,-53045.663120194564,0.0
35100.0,-0.5806348040536432,-7.70196736028655,-54432.01724504614,0.0
35280.0,-0.5587016245649674,-7.714060060601311,-55820.54805595438,0.0
35460.0,-0.5367769473906577,-7.7258455734250955,-57211.200259170895,0.0
35640.0,-0.514867667197933,-7.737259830091821,-58603.907028587426,0.0
35820.0,-0.5146819317231476,-7.895537946719505,-60025.10385899694,0.0
36000.0,-0.5142351262645728,-8.053098655968792,-61474.661617071324,0.0
36180.0,-0.5134671344109925,-8.209491692042826,-62952.37012163903,0.0
36360.0,-0.5123571218809131,-8.364517141235025,-64457.983207061334,0.0
36540.0,-0.5108969902198948,-8.518048715638695,-65991.2319758763,0.0
36720.0,-0.509085053722914,-8.669992235780631,-67551.83057831682,0.0
36900.0,-0.5069236977393106,-8.820270697593246,-69139.4793038836,0.0
37080.0,-0.5044180815455922,-8.968816233535017,-70753.8662259199,0.0
37260.0,-0.5015752744374082,-9.115564886501948,-72394.66790549025,0.0
37440.0,-0.49840364781608115,-9.260453033269032,-74061.54945147867,0.0015963521839188477
37620.0,-0.49491244218735286,-9.403414935539143,-75754.16413987572,0.005087557812647137
37800.0,-0.4911114588398146,-9.544381098158057,-77472.15273754417,0.008888541160185393
37980.0,-0.4870108413291455,-9.683277212343912,-79215.14263576607,0.012989158670854484
38160.0,-0.48262092175492277,-9.820023524318845,-80982.74687014346,0.01737907824507723
38340.0,-0.47795211373642194,-9.954534513516501,-82774.56308257642,0.022047886263578065
38520.0,-0.473014838972671,-10.086718796046794,-84590.17246586485,0.026985161027329008
38700.0,-0.4678194778781092,-10.216479191943595,-86429.13872041469,0.03218052212189082
38880.0,-0.46237633740147394,-10.343712911314629,-88291.00704445133,0.037623662598526064
39060.0,-0.45669563103448574,-10.46831182657587,-90175.30317323498,0.04330436896551426
39240.0,-0.4507874673952926,-10.590162806722837,-92081.5324784451,0.049212532604707426
39420.0,-0.44466184477215526,-10.709148095966064,-94009.17913571898,0.05533815522784474
39600.0,-0.4383286497390608,-10.82514572369384,-95957.70536598387,0.06167135026093917
39780.0,-0.4317976584820071,-10.938029936094066,-97926.5507544808,0.06820234151799293
39960.0,-0.4250785398571909,-11.047671642216118,-99915.13165007971,0.0749214601428091
40140.0,-0.4181808594798887,-11.153938869033151,-101922.84064650568,0.0818191405201113
40320.0,-0.4111140843441887,-11.256697221358987,-103949.04614635029,0.08888591565581128
40500.0,-0.4038875876198159,-11.355810343413255,-105993.09200816468,0.09611241238018409
40680.0,-0.3965106533782437,-11.451140379514207,-108054.29727647723,0.1034893466217563
40860.0,-0.3889924810771035,-11.542548431875762,-110131.95599421486,0.11100751892289651
41040.0,-0.3813421896875777,-11.629895013850728,-112225.337096708,0.11865781031242228
41220.0,-0.37356882138980013,-11.713040497230056,-114333.68438620941,0.12643117861019987
41400.0,-0.36568134479046877,-11.791845552405974,-116456.21658564248,0.13431865520953123
41580.0,-0.3576886576379867,-11.866171580355756,-118592.12747010653,0.14231134236201332
41760.0,-0.34959958902567223,-11.935881135516587,-120740.58607449952,0.15040041097432777
41940.0,-0.3414229010845444,-12.000838338710496,-122900.7369754674,0.15857709891545563
42120.0,-0.3331672901750493,-12.06090927934984,-125071.70064575037,0.1668327098249507
42300.0,-0.32484138759269937,-12.1159624062141,-127252.5738788689,0.17515861240730063
42480.0,-0.3164537598065521,-12.165868906139584,-129442.43028197403,0.1835462401934479
42660.0,-0.31144364468302127,-12.242576787817933,-131646.09410378124,0.18855635531697873
42840.0,-0.3063991548640561,-12.31456188309369,-133862.7152427381,0.1936008451359439
43020.0,-0.3013599712927942,-12.382007502693217,-136091.47659322288,0.19864002870720582
43200.0,-0.29635353980947254,-12.444993982170926,-138331.57551001364,0.20364646019052746
43380.0,-0.291398412698116,-12.50352626491778,-140582.21023769883,0.208601587301884
43560.0,-0.2865066942141586,-12.557554375843475,-142842.57002535067,0.21349330578584141
43740.0,-0.2816858696303202,-12.606989031156006,-145111.82805095875,0.21831413036967978
43920.0,-0.2769401737414057,-12.651713581965694,-147389.13649571256,0.22305982625859427
44100.0,-0.27243141780259506,-12.693194044902247,-149673.91142379495,0.22756858219740494
44280.0,-0.2679359908553772,-12.729060082810932,-151965.1422387009,0.23206400914462277
44460.0,-0.2634552277227732,-12.759161085658803,-154261.7912341195,0.2365447722772268
44640.0,-0.25899916891392716,-12.783439881471157,-156562.8104127843,0.24100083108607284
44820.0,-0.2545783901703496,-12.801852047940699,-158867.14378141364,0.2454216098296504
45000.0,-0.250202288627936,-12.814348501408581,-161173.7265116672,0.24979771137206402
45180.0,-0.2458788644842757,-12.820872951702869,-163481.4836429737,0.2541211355157243
45360.0,-0.24161487289743513,-12.821363166039001,-165789.32901286072,0.2583851271025649
45540.0,-0.2374160425272205,-12.815753013877709,-168096.1645553587,0.2625839574727795
45720.0,-0.23328727987600023,-12.803974460620763,-170400.87995827044,0.26671272012399977
45900.0,-0.22923284180752504,-12.785959310104133,-172702.35263408918,0.270767158192475
46080.0,-0.22525647611501412,-12.761640675356091,-174999.44795565328,0.2747435238849859
46260.0,-0.22103249341043985,-12.72734211332893,-177290.3695360525,0.27896750658956015
46440.0,-0.21694566630808357,-12.687147804779686,-179574.05614091284,0.28305433369191646
46620.0,-0.21299261954911025,-12.640945227358372,-181849.42628183734,0.28700738045088975
46800.0,-0.20917214662699354,-12.58865117831624,-184115.38349393426,0.29082785337300643
46980.0,-0.20548382601901297,-12.53019714457184,-186370.8189799572,0.29451617398098706
47160.0,-0.20192759205277763,-12.465524870098283,-188614.61345657488,0.29807240794722234
47340.0,-0.19850358056210324,-12.394584858018066,-190845.63873101815,0.30149641943789673
47520.0,-0.195212066539047,-12.317335849954041,-193062.75918400986,0.304787933460953
47700.0,-0.19205343379106343,-12.2337446364199,-195264.83321856544,0.30794656620893657
47880.0,-0.18902815604444426,-12.14378597541142,-197450.7146941395,0.31097184395555577
48060.0,-0.18613678238040293,-12.047442541733872,-199619.2543516516,0.31386321761959707
48240.0,-0.18337992453492635,-11.944704880194212,-201769.30123008654,0.31662007546507365
48420.0,-0.1807582452019967,-11.835571353448334,-203899.70407370722,0.3192417547980033
48600.0,-0.17827244703648812,-11.720048081465562,-206009.31272837103,0.32172755296351185
48780.0,-0.1759232622452072,-11.598148871727737,-208096.97952528202,0.3240767377547928
48960.0,-0.1737114427204649,-11.469895140039789,-210161.56065048918,0.3262885572795351
