t(s),Tsurface(蚓),Flux(W),E(J),f_liq
0.0,2.0,28.79999999999996,0.0,0.5
180.0,1.9570785081081639,28.84244081711293,5191.639347080328,0.45707850810816386
360.0,1.9222910894416527,28.91873141983031,10397.011002649782,0.4222910894416527
540.0,1.8932250375002855,29.01779003019325,15620.213208084568,0.3932250375002855
720.0,1.8683079339030613,29.132307825784935,20864.028616725856,0.36830793390306127
900.0,1.846467728787286,29.25722178357622,26130.328537769576,0.34646772878728593
1080.0,1.8269491325111564,29.38889197243526,31420.329092807922,0.3269491325111564
1260.0,1.809207706980058,29.524628590167815,36734.76223903813,0.30920770698005806
1440.0,1.7928441327457212,29.66239876286551,42073.99401635392,0.2928441327457212
1620.0,1.7775613050959325,29.800635043275346,47438.10832414348,0.27756130509593246
1800.0,1.7631354191873418,29.938106146930135,52826.96743059091,0.26313541918734185
1980.0,1.7493960510864865,30.073827749354656,58240.25642547474,0.24939605108648655
2160.0,1.7362121987652628,30.206999877689682,63677.51640345888,0.23621219876526278
2340.0,1.7234823513424442,30.33696231702802,69138.16962052393,0.2234823513424442
2520.0,1.7111273234516688,30.463162407166532,74621.53885381391,0.21112732345166885
2700.0,1.699085013999386,30.585131475843315,80126.8625194657,0.19908501399938605
2880.0,1.6873065221398587,30.70246736972753,85653.30664601666,0.18730652213985866
3060.0,1.6757532332583414,30.814821346632954,91199.97448841059,0.17575323325834136
3240.0,1.6643946074974358,30.921888127901394,96765.91435143285,0.16439460749743584
3420.0,1.6532064838270597,31.023398270639557,102350.12604014797,0.1532064838270597
3600.0,1.6421697672600701,31.11911226470337,107951.56624779457,0.14216976726007013
3780.0,1.63126940425025,31.208815927581995,113569.15311475933,0.13126940425025002
3960.0,1.6204935772608855,31.29231678698237,119201.77013641616,0.1204935772608855
4140.0,1.6098330676982275,31.36944122269337,124848.26955650096,0.10983306769822754
4320.0,1.5992807493379753,31.440032197343676,130507.47535202283,0.09928074933797526
4500.0,1.5888311836811166,31.503947447373143,136178.18589254998,0.08883118368111664
4680.0,1.578480295462577,31.561058035909785,141859.17633901373,0.07848029546257695
4860.0,1.568225111548864,31.61124719165789,147549.20083351215,0.0682251115488639
5040.0,1.5580635502089997,31.65440937465343,153246.99452094978,0.05806355020899967
5220.0,1.5479942505779039,31.6904495224245,158951.2754349862,0.04799425057790385
5400.0,1.5380164342982088,31.719282439797126,164660.7462741497,0.03801643429820878
5580.0,1.5281297929983026,31.74083230309571,170374.09608870692,0.02812979299830265
5760.0,1.51833439656497,31.75503225535326,176090.0018946705,0.018334396564970046
5940.0,1.508630618188009,31.761824073756877,181807.13022794673,0.00863061818800892
6120.0,1.4891313745328343,31.701402245939875,187513.38263221591,0.0
6300.0,1.4715298182308654,31.643920938454393,193209.28840113772,0.0
6480.0,1.4552885396439281,31.586226804186218,198894.80922589125,0.0
6660.0,1.4400660295075025,31.526311203664683,204569.5452425509,0.0
6840.0,1.4256394795515541,31.462863400047038,210232.86065455936,0.0
7020.0,1.4118591365612143,31.395005380280413,215883.96162300985,0.0
7200.0,1.3986211492366143,31.322133643646193,221521.94567886615,0.0
7380.0,1.3858512220541457,31.243823750173114,227145.8339538973,0.0
7560.0,1.3734946139448505,31.15977183327456,232754.5928838867,0.0
7740.0,1.361509894886628,31.069758057078502,238347.14933416084,0.0
7920.0,1.349864956070958,30.97362325252757,243922.4015196158,0.0
8100.0,1.3385343933156915,30.871253587693506,249479.22716540063,0.0
8280.0,1.3274977437448194,30.76257022732457,255016.48980631906,0.0
8460.0,1.3167382647615387,30.64752215843524,260533.0437948374,0.0
8640.0,1.3062420663933494,30.52608107403469,266027.7383881636,0.0
8820.0,1.2959974800348515,30.39823762944499,271499.4211614637,0.0
9000.0,1.2859945895475846,30.263998637876217,276946.9409162814,0.0
9180.0,1.2762248766933428,30.123384924737,282369.1502027341,0.0
9360.0,1.2666809489391813,29.976429654389346,287764.9075405242,0.0
9540.0,1.257356327804765,29.82317700239767,293133.07940095576,0.0
9720.0,1.2482452824703105,29.66368108457286,298472.54199617886,0.0
9900.0,1.239342697703678,29.49800507941888,303782.18291047425,0.0
10080.0,1.169719897183362,28.936840441275223,308990.8141899038,0.0
10260.0,1.1391701924513415,28.617777608264472,314142.0141593914,0.0
10440.0,1.1152073344530167,28.333605994016004,319242.0632383143,0.0
10620.0,1.0946700925910948,28.064315246413734,324293.63998266874,0.0
10800.0,1.0765364713875623,27.80354191586521,329298.2775275245,0.0
10980.0,1.0602052752310511,27.547600948045655,334256.84569817275,0.0
11160.0,1.045282463465507,27.294126359339643,339169.7884428539,0.0
11340.0,1.03149944128558,27.041552259422406,344037.26784954994,0.0
11520.0,1.0186665822919105,26.788817528001864,348859.25500459026,0.0
11700.0,0.8280985977359673,25.394933357725677,353430.34300898085,0.0
11880.0,0.708472726461474,24.449907147526616,357831.32629553566,0.0
12060.0,0.6327795017619727,23.780841238340145,362111.8777184369,0.0
12240.0,0.5758796282181012,23.227166514843958,366292.7676911088,0.0
12420.0,0.5269989640667445,22.720264270211935,370382.41525974695,0.0
12600.0,0.4818946916369056,22.233286441494116,374384.4068192159,0.0
12780.0,0.43891600144901693,21.755947235645955,378300.4773216322,0.0
12960.0,0.3974172416185778,21.284375415614036,382131.66489644273,0.0
13140.0,0.3571406185624216,20.81716974255922,385878.7554501034,0.0
13320.0,0.31797779050058794,20.35387691208542,389542.45329427876,0.0
13500.0,0.2798779665261474,19.89440542202416,393123.4462702431,0.0
13680.0,0.242812503318212,19.438800015565583,396622.4302730449,0.0
13860.0,0.20676127174690923,18.987154906139363,400040.11815615,0.0
14040.0,0.17170740989175712,18.539580398231834,403377.2426278317,0.0
14220.0,0.13763530661431098,18.096190049997706,406634.55683683127,0.0
14400.0,0.10452982959943403,17.657095739346996,409812.8340699137,0.0
14580.0,0.07237603277478993,17.222405772328376,412912.8671089328,0.0
14760.0,0.04115904834742828,16.79222416404602,415935.4674584611,0.0
14940.0,0.010864049882465119,16.366650372876617,418881.4645255789,0.0
15120.0,-0.01852375734392518,15.945779211234427,421751.7047836011,0.0
15300.0,-0.047019135585830235,15.529700826308698,424547.05093233666,0.0
15480.0,-0.07463680996496447,15.11850070964786,427268.38106007327,0.0
15660.0,-0.10139146240967638,14.712259719639206,429916.5878096083,0.0
15840.0,-0.12729772516049612,14.31105411062336,432492.57754952053,0.0
16020.0,-0.15237017421296076,13.914955566112072,434997.2695514207,0.0
16200.0,-0.1766233228392598,13.524031235020178,437431.59517372434,0.0
16380.0,-0.2000716152418059,13.138343770382345,439796.49705239316,0.0
16560.0,-0.22272942035771312,12.757951370246479,442092.9282990375,0.0
16740.0,-0.24461102581999583,12.382907820527294,444321.8517067324,0.0
16920.0,-0.2657306320762444,12.013262539643943,446484.23896386835,0.0
17100.0,-0.2861023466636072,11.649060624788246,448581.06987633026,0.0
17280.0,-0.30574017863821434,11.290342899684344,450613.3315982734,0.0
17460.0,-0.3246580331569587,10.937145963711187,452582.01787174144,0.0
17640.0,-0.34286970620952895,10.589502242272054,454488.12827535043,0.0
17820.0,-0.36038887949866005,10.247440038302786,456332.66748224496,0.0
18000.0,-0.3772291154666663,9.910983584821954,458116.6445275129,0.0
18180.0,-0.3934038524664576,9.580153098435314,459841.07208523125,0.0
18360.0,-0.40892640007539416,9.254964833716107,461506.96575530013,0.0
18540.0,-0.42380993455047977,8.935431138392627,463115.3433602108,0.0
18720.0,-0.4380674944235916,8.621560509283542,464667.2242518819,0.0
18900.0,-0.4517119762356094,8.313357648930182,466163.62862868933,0.0
19080.0,-0.46475613040851216,8.010823522884387,467605.5768628085,0.0
19260.0,-0.4772125572547102,7.713955417618731,468994.0888379799,0.0
19440.0,-0.48909370312309314,7.422746999034448,470330.18329780607,0.0
19620.0,-0.50041185668148,7.1371883715507165,471614.8772046852,0.0
19800.0,-0.511179145335401,6.857266137766555,472849.18510948314,0.0
19980.0,-0.5214075317833382,6.582963458694091,474034.1185320481,0.0
20160.0,-0.531108810708808,6.3142601145701445,475170.6853526707,0.0
20340.0,-0.5402946056098801,6.051132566258351,476259.88921459723,0.0
20520.0,-0.548976365766964,5.793554017262597,477302.7289377045,0.0
20700.0,-0.5571653633499362,5.541494476376951,478300.1979434524,0.0
20880.0,-0.5648726906658911,5.294920821004816,479253.28369123326,0.0
21060.0,-0.5721092575490405,5.053796861184134,480162.9671262464,0.0
21240.0,-0.5788857888945028,4.818083404361197,481030.22213903145,0.0
21420.0,-0.5852128223379397,4.587738320960374,481856.0150368043,0.0
21600.0,-0.5911007060832126,4.362716610800578,482641.3040267484,0.0
21780.0,-0.596559596880425,4.142970470413667,483387.0387114229,0.0
21960.0,-0.6015994581569183,3.9284493613227163,484094.159596461,0.0
22140.0,-0.6062300583039683,3.7191000793409996,484763.5976107424,0.0
22320.0,-0.6104609691220977,3.5148668249546478,485396.2736392342,0.0
22500.0,-0.6143015644280755,3.3156912748535308,485993.0980687078,0.0
22680.0,-0.617761018826822,3.1215126546760747,486554.97034654947,0.0
22860.0,-0.6208483066515595,2.932267813034254,487082.77855289564,0.0
23040.0,-0.6235722010756551,2.7478912968847764,487577.3989863349,0.0
23220.0,-0.6259412733997013,2.5683154283120513,488039.6957634311,0.0
23400.0,-0.6279638925174383,2.393470382787036,488470.52043233276,0.0
23580.0,-0.6296482245641728,2.223284268964476,488870.7116007464,0.0
23760.0,-0.6310022327513835,2.0576832100781997,489241.09457856044,0.0
23940.0,-0.6320336773911925,1.8965914269913688,489582.48103541887,0.0
24120.0,-0.6327501161143632,1.7399313229546194,489895.6686735507,0.0
24300.0,-0.6331589042854417,1.587623570120653,490181.4409161724,0.0
24480.0,-0.6332671956185749,1.4395871978590034,490440.566611787,0.0
24660.0,-0.6330819429974355,1.2957396829088876,490673.79975471064,0.0
24840.0,-0.6326098995025615,1.1559970414017793,490881.87922216294,0.0
25020.0,-0.6318576196492337,1.0202739227787034,491065.5285282631,0.0
25200.0,-0.6308314608388503,0.8884837056193906,491225.4555952746,0.0
25380.0,-0.62953758502651,0.7605385953927486,491362.35254244524,0.0
25560.0,-0.627981960607272,0.6363497241291591,491476.89549278846,0.0
25740.0,-0.6261703645232763,0.5158272520060968,491569.74439814955,0.0
25920.0,-0.6241083845935856,0.39888047082874795,491641.5428828987,0.0
26100.0,-0.6218014220682666,0.28541790937715195,491692.9181065866,0.0
26280.0,-0.619254694407843,0.1753474405806595,491724.4806458911,0.0
26460.0,-0.6164732382888484,0.06857639046940145,491736.8243961756,0.0
26640.0,-0.6134619128357585,-0.034988351159024406,491730.526492967,0.0
26820.0,-0.6102254030791232,-0.1354402184313158,491706.14725364937,0.0
27000.0,-0.6067682236392076,-0.23287285553451487,491664.23013965314,0.0
27180.0,-0.6030947226339317,-0.3273800013944891,491605.3017394021,0.0
27360.0,-0.5992090858093476,-0.4190553730076995,491529.87177226075,0.0
27540.0,-0.5951153408903064,-0.5079925475497336,491438.4331137018,0.0
27720.0,-0.5908173621483911,-0.5942848433969873,491331.46184189036,0.0
27900.0,-0.5863188751835317,-0.678025200210565,491209.41730585246,0.0
28080.0,-0.5816234619151192,-0.7593060582442996,491072.7422153685,0.0
28260.0,-0.5767345657777568,-0.8382192370514054,490921.86275269923,0.0
28440.0,-0.5716554971161221,-0.9148558137766607,490757.18870621943,0.0
28620.0,-0.5663894387727338,-0.9893060012331769,490579.11362599744,0.0
28800.0,-0.5609394518617306,-1.0616590259745975,490388.015001322,0.0
28980.0,-0.5553084817210684,-1.1320030065849336,490184.25446013676,0.0
29160.0,-0.5494993640348526,-1.2004248324190252,489968.17799030134,0.0
29340.0,-0.5435148311168208,-1.267010043037015,489740.1161825547,0.0
29520.0,-0.5373575183453089,-1.3318427085856066,489500.38449500926,0.0
29700.0,-0.5310299707393391,-1.395005311387967,489249.28353895945,0.0
29880.0,-0.5245346496648154,-1.4565786290119294,488987.0993857373,0.0
30060.0,-0.5178739396591386,-1.5166416190934755,488714.1038943005,0.0
30240.0,-0.5110501553619324,-1.575271306198547,488430.5550591848,0.0
30420.0,-0.5040655485389525,-1.632542671011342,488136.69737840275,0.0
30600.0,-0.49692231518566266,-1.6885285421414422,487832.7622408173,0.0
30780.0,-0.48962260269642327,-1.7432994908447998,487518.9683324652,0.0
30960.0,-0.48216851708469327,-1.796923728955444,487195.52206125326,0.0
31140.0,-0.47456213023918353,-1.8494670103250683,486862.6179993948,0.0
31320.0,-0.46680548720045034,-1.9009925360667863,486520.43934290274,0.0
31500.0,-0.45890061344202515,-1.9515608638971154,486169.15838740126,0.0
31680.0,-0.45084952213982254,-2.0012298218665676,485808.93701946526,0.0
31860.0,-0.44265422141328276,-2.050054426764255,485439.9272226477,0.0
32040.0,-0.4343167215214439,-2.098086807475468,485062.2715973021,0.0
32220.0,-0.42583904199697276,-2.145376133563218,484676.1038932607,0.0
32400.0,-0.4172232187010388,-2.191968549335704,484281.5495543803,0.0
32580.0,-0.4084713107818572,-2.2379071136506528,483878.7262739232,0.0
32760.0,-0.39958540751971466,-2.2832317456956814,483467.744559698,0.0
32940.0,-0.39056763504136044,-2.3279791769702745,483048.7083078433,0.0
33120.0,-0.38142016288675695,-2.372182909680107,482621.7153841009,0.0
33300.0,-0.3721452104113857,-2.4158731817387085,482186.85821138794,0.0
33480.0,-0.3627450530075464,-2.4590769385537845,481744.22436244827,0.0
33660.0,-0.3532220281284213,-2.5018178117575216,481293.8971563319,0.0
33840.0,-0.34357854109905356,-2.5441161050203718,480835.9562574283,0.0
34020.0,-0.3338170706988473,-2.5859887870674845,480370.4782757561,0.0
34200.0,-0.3239401745007073,-2.6274494919954487,479897.5373671969,0.0
34380.0,-0.31395049395251656,-2.668508526964924,479417.20583234326,0.0
34560.0,-0.30385075918728494,-2.7091728873213725,478929.5547126254,0.0
34740.0,-0.2936437935490048,-2.7494462791732444,478434.6543823742,0.0
34920.0,-0.28333251782198876,-2.789329149431952,477932.5751354764,0.0
35100.0,-0.2729199541522786,-2.8288187232945665,477423.3877652834,0.0
35280.0,-0.2624092296505619,-2.8679090491244774,476907.164136441,0.0
35460.0,-0.2518035796669315,-2.906591050661157,476383.977747322,0.0
35640.0,-0.2411063507287628,-2.944852586464973,475853.9042817583,0.0
35820.0,-0.2303210031339585,-2.982678516478252,475317.0221487922,0.0
36000.0,-0.21945111319282667,-3.0200507755594685,474773.4130091915,0.0
36180.0,-0.20850037511288877,-3.05694845382327,474223.1622875033,0.0
36360.0,-0.19747260252198262,-3.0933478835954062,473666.35966845613,0.0
36540.0,-0.18637172962610413,-3.12922273276872,473103.09957655775,0.0
36720.0,-0.17520181199952814,-3.164544104324005,472533.48163777945,0.0
36900.0,-0.1639670270058523,-3.1992806417585067,471957.6111222629,0.0
37080.0,-0.1526716738497174,-3.2333986401438666,471375.599367037,0.0
37260.0,-0.1413201732600633,-3.266862162516668,470787.564177784,0.0
37440.0,-0.12991706680688267,-3.2996331612861045,470193.6302087525,0.0
37620.0,-0.11846701585452112,-3.331671604326587,469593.92931997374,0.0
37800.0,-0.10697480015565107,-3.362935605407709,468988.60091100034,0.0
37980.0,-0.09544531609109178,-3.393381558599768,468377.79223045235,0.0
38160.0,-0.08388357456168181,-3.4229642762804007,467761.6586607219,0.0
38340.0,-0.07229469853940318,-3.4516371303571445,467140.3639772576,0.0
38520.0,-0.06068392028592046,-3.4793521963108005,466514.0805819217,0.0
38700.0,-0.04905657824762283,-3.5060603996572928,465882.98970998335,0.0
38880.0,-0.03741811363713832,-3.5317116644190323,465247.2816103879,0.0
39060.0,-0.02577406671212745,-3.5562550631927508,464607.1556990132,0.0
39240.0,-0.014130072762951989,-3.57963896839775,463962.8206847016,0.0
39420.0,-0.0024918578215511944,-3.6018112042875927,463314.49466792983,0.0
39600.0,0.009134765895459316,-3.62271919930884,462662.40521205426,0.0
39780.0,0.02074390479582294,-3.6423101383928014,462006.78938714357,0.0
39960.0,0.03232958895860094,-3.6605311147698716,461347.893786485,0.0
40140.0,0.043885777404333665,-3.677329280901987,460685.97451592266,0.0
40320.0,0.05540636357323422,-3.6926519981353,460021.2971562583,0.0
40500.0,0.0668851809958582,-3.7064469846839674,459354.1366990152,0.0
40680.0,0.07831600914036674,-3.718662461565749,458684.7774559334,0.0
40860.0,0.08969257942023617,-3.7292472961214407,458013.51294263155,0.0
41040.0,0.10100858134606842,-3.7381511427626646,457340.64573693427,0.0
41220.0,0.11225766880501153,-3.745324580606284,456666.48731242516,0.0
41400.0,0.12343346645122534,-3.750719247668569,455991.35784784483,0.0
41580.0,0.13452957619080008,-3.754287971307977,455315.5860130094,0.0
41760.0,0.14553958374457981,-3.7559848946223116,454639.50873197743,0.0
41940.0,0.15645706527242953,-3.7557655985234852,453963.4709242432,0.0
42120.0,0.16727559404263773,-3.7535872192312776,453287.8252247816,0.0
42300.0,0.17798874713034302,-3.7494085609466805,452612.9316838112,0.0
42480.0,0.1885901121291224,-3.743190203484445,451939.15744718397,0.0
42660.0,0.19907329386017933,-3.734894604664557,451266.8764183443,0.0
42840.0,0.20943192106390865,-3.7244861972822405,450596.4689028335,0.0
43020.0,0.21965965305899715,-3.711931480496487,449928.32123634417,0.0
43200.0,0.22975018635464614,-3.697199105497693,449262.8253973546,0.0
43380.0,0.23969726120195467,-3.6802599553349995,448600.37860539433,0.0
43560.0,0.249494668070997,-3.661087218804651,447941.3829060095,0.0
43740.0,0.2591362540406446,-3.6396564583208395,447286.2447435118,0.0
43920.0,0.2686159290887359,-3.615945671709962,446635.374522604,0.0
44100.0,0.2779276722707581,-3.589935347889492,445989.18615998386,0.0
44280.0,0.2870655377758058,-3.561608516411103,445348.0966270299,0.0
44460.0,0.2960236608491787,-3.530950790866949,444712.52548467385,0.0
44640.0,0.304796263571608,-3.49795040617557,444082.89441156224,0.0
44820.0,0.3133776604857309,-3.4625982497818564,443459.6267266015,0.0
45000.0,0.32176226406107206,-3.4248878868219155,442843.14690697356,0.0
45180.0,0.3299445899894304,-3.384815579320118,442233.88010269596,0.0
45360.0,0.3379192623032282,-3.3423802995004914,441632.2516487859,0.0
45540.0,0.3456810183100119,-3.29758373730971,441038.68657607015,0.0
45720.0,0.3532247133369449,-3.250430302261933,440453.609121663,0.0
45900.0,0.3605453252797659,-3.2009271197291373,439877.4422401117,0.0
46080.0,0.36763795895132306,-3.149084021812098,439310.60711618554,0.0
46260.0,0.3744978502254013,-3.094913532938369,438753.52268025663,0.0
46440.0,0.38112036997217963,-3.038430850343576,438206.6051271948,0.0
46620.0,0.3875010277822449,-2.9796538196016407,437670.2674396665,0.0
46800.0,0.3936354754766651,-2.9186029053776372,437144.91891669855,0.0
46980.0,0.39951951040118705,-2.8553011575842873,436630.96470833337,0.0
47160.0,0.40514907850317655,-2.7897741731297945,436128.80535717,0.0
47340.0,0.4105202771904195,-2.722050053449633,435638.83634754905,0.0
47520.0,0.41562935797143585,-2.6521593580201697,435161.44766310544,0.0
47700.0,0.42047272887741405,-2.5801350540551846,434697.0233533755,0.0
47880.0,0.4250469566663473,-2.506012462589693,434245.9411101093,0.0
48060.0,0.429348768810382,-2.4298292011571236,433808.571853901,0.0
48240.0,0.4333750552678076,-2.3516251232675778,433385.27933171287,0.0
48420.0,0.43712287004149897,-2.2714422548951965,432976.4197258317,0.0
48600.0,0.44058943252599364,-2.1893247281824912,432582.34127475886,0.0
48780.0,0.4437721286457222,-2.1053187125686477,432203.3839064965,0.0
48960.0,0.4466685117872281,-2.019472343547292,431839.878884658,0.0
49140.0,0.44927630352850956,-1.9318356492569146,431492.14846779173,0.0
49320.0,0.4515933941688746,-1.8424604751045663,431160.5055822729,0.0
49500.0,0.45361784306295877,-1.751400406620033,430845.25350908126,0.0
49680.0,0.45534787876276217,-1.6587106907339972,430546.68558474915,0.0
49860.0,0.4567818989717778,-1.5644481556693905,430265.08491672867,0.0
50040.0,0.45791847031544136,-1.4686711296304782,430000.7241133952,0.0
50220.0,0.4587563279323092,-1.3714393584693234,429753.8650288707,0.0
50400.0,0.45929437489047953,-1.27281392250359,429524.7585228201,0.0
50580.0,0.45953168143391654,-1.17285715265434,429313.6442353423,0.0
