t(s),Tsurface(蚓),Flux(W),E(J),f_liq
0.0,2.0,28.79999999999996,0.0,1.0
180.0,1.2743354433265441,25.536678698298154,4596.602165693667,1.0
360.0,0.9870224996854953,24.351125107418493,8979.804685028996,1.0
540.0,0.8293371639242414,23.777573548201673,13259.767923705298,1.0
720.0,0.7258011663848302,23.457196179006946,17482.063235926547,1.0
900.0,0.6470866935970605,23.249711791392212,21667.011358377145,1.0
1080.0,0.58015183113092,23.09219761564209,25823.60692919272,1.0
1260.0,0.5190260637826192,22.95556961525473,29955.609459938572,1.0
1440.0,0.5197275947290165,23.127926081141986,34118.63615454413,1.0
1620.0,0.5207349901275968,23.298428289184937,38312.35324659742,1.0
1800.0,0.5215673901170919,23.464433284650838,42535.95123783457,1.0
1980.0,0.5219101750761647,23.624095825794274,46788.28848647754,1.0
2160.0,0.5215632963084459,23.77612970100411,51067.99183265828,1.0
2340.0,0.5204071285959239,23.91964962940155,55373.528765950556,1.0
2520.0,0.5183784192640437,24.054058900480072,59703.25936803697,1.0
2700.0,0.5154531260456907,24.1789683120033,64055.47366419756,1.0
2880.0,0.5116341467942123,24.294137511580292,68428.41841628202,1.0
3060.0,0.5069425584390567,24.399432562576045,72820.3162775457,1.0
3240.0,0.5014113790357515,24.494795291960504,77229.37943009859,1.0
3420.0,0.49508114394423364,24.58022119695609,81653.81924555068,0.9950811439442336
3600.0,0.4879967854416344,24.65574356652011,86091.8530875243,0.9879967854416344
3780.0,0.4802054477773557,24.72142211226675,90541.70906773231,0.9802054477773556
3960.0,0.4717549725466627,24.777334868104465,95001.62934399112,0.9717549725466628
4140.0,0.4626928634381413,24.82357245613268,99469.87238609501,0.9626928634381413
4320.0,0.45306559290111215,24.860234062594397,103944.71451736201,0.9530655929011121
4500.0,0.44291815184686556,24.887424646922117,108424.45095380799,0.9429181518468656
4680.0,0.43229377130082774,24.905253037370937,112907.39650053476,0.9322937713008277
4860.0,0.4212337649616053,24.913830661650685,117391.88601963189,0.9212337649616054
5040.0,0.4097774560616248,24.913270730025566,121876.27475103649,0.9097774560616247
5220.0,0.3979621623242803,24.90368773857674,126358.9385439803,0.8979621623242803
5400.0,0.3858232203004976,24.88519719684026,130838.27403941155,0.8858232203004976
5580.0,0.3733940357559553,24.857915510580334,135312.69883131603,0.8733940357559553
5760.0,0.3607061506549305,24.82195996974584,139780.6516258703,0.8607061506549305
5940.0,0.3477893200705504,24.777448805667674,144240.59241089047,0.8477893200705504
6120.0,0.3346715943489819,24.724501291722422,148691.0026434005,0.834671594348982
6300.0,0.3213794032865869,24.663237869068478,153130.38545983285,0.8213794032865869
6480.0,0.30793764010282787,24.593780284404687,157557.2659110257,0.8079376401028279
6660.0,0.29436974372199043,24.516251730577757,161970.19122252968,0.7943697437219904
6840.0,0.280697778395973,24.43077698366413,166367.73107958923,0.780697778395973
7020.0,0.2669425100678442,24.337482532176104,170748.4779353809,0.7669425100678442
7200.0,0.2531234791343686,24.23649669550033,175111.04734057098,0.7531234791343686
7380.0,0.23925906944606437,24.127949729724836,179454.07829192144,0.7392590694460643
7560.0,0.22132492423733688,23.98681218587606,183771.70448537913,0.7213249242373369
7740.0,0.20452306519896357,23.845374415917373,188063.87188024426,0.7045230651989636
7920.0,0.18886582013620926,23.703826620904433,192330.56067200706,0.6888658201362092
8100.0,0.17423351241335155,23.561531353681413,196571.63631566972,0.6742335124133516
8280.0,0.1604912514117199,23.417747993985973,200786.8309545872,0.6604912514117199
8460.0,0.15368973187438245,23.310748715371595,204982.7657233541,0.6536897318743824
8640.0,0.14712684655194838,23.198513486048633,209158.49815084285,0.6471268465519484
8820.0,0.14081259737574126,23.08116769201726,213313.10833540597,0.6408125973757413
9000.0,0.13473913818384123,22.95872867432498,217445.67949678446,0.6347391381838412
9180.0,0.12889382906028746,22.831187576967505,221555.2932606386,0.6288938290602875
9360.0,0.1232633802704486,22.698535482491113,225641.029647487,0.6232633802704486
9540.0,0.11783527139350103,22.560772458041427,229701.96868993447,0.617835271393501
9720.0,0.1125981777594546,22.41791033499508,233737.1925502336,0.6125981777594546
9900.0,0.1075420281316247,22.269973132758395,237745.7877141301,0.6075420281316247
10080.0,0.10265793123046107,22.116996622533488,241726.84710618612,0.6026579312304611
10260.0,0.0979380620247794,21.959027607397612,245679.4720755177,0.5979380620247794
10440.0,0.09337554200144293,21.796123138259112,249602.77424040434,0.5933755420014429
10620.0,0.08896432567014884,21.628349746516925,253495.8771947774,0.5889643256701489
10800.0,0.0846990971211641,21.455782720560208,257357.91808447824,0.5846990971211641
10980.0,0.08057517727076619,21.278505432728227,261188.04906236933,0.5805751772707661
11160.0,0.07658844128371073,21.096608715761533,264985.4386312064,0.5765884412837108
11340.0,0.07273524530059372,20.910190285190307,268749.27288254065,0.5727352453005937
11520.0,0.06901236153271648,20.71935420343949,272478.75663915975,0.5690123615327165
11700.0,0.06541692082880797,20.524210381477612,276173.1145078257,0.565416920828808
11880.0,0.06194636189387867,20.32487411412889,279831.5918483689,0.5619463618938787
12060.0,0.05859838642301042,20.121465645532997,283453.4556645648,0.5585983864230104
12240.0,0.055370919492030476,19.914109761596436,287037.99542165216,0.5553709194920304
12420.0,0.052262074619552824,19.70293540662283,290584.5237948443,0.5522620746195528
12600.0,0.04927012298012657,19.48807532161718,294092.3773527354,0.5492701229801266
12780.0,0.04639346630648003,19.269665702041536,297560.91717910283,0.54639346630648
12960.0,0.04363061307066876,19.047845873050345,300989.5294362519,0.5436306130706687
13140.0,0.04098015757996094,18.82275798045953,304377.62587273464,0.540980157579961
13320.0,0.03844076166414535,18.59454669590587,307724.6442779977,0.5384407616641453
13500.0,0.03601113866720031,18.363358934833503,311030.04888626776,0.5360111386672003
13680.0,0.033690039488420094,18.1293435861062,314293.3307317669,0.5336900394884201
13860.0,0.03147624044662815,17.8926512521885,317514.0079571608,0.5314762404466281
14040.0,0.02936853276641351,17.65343399896725,320691.6260769749,0.5293685327664135
14220.0,0.027365713507776973,17.41184511440108,323825.7581975671,0.527365713507777
14400.0,0.025466577780484907,17.168038875286413,326916.0051951186,0.5254665777804849
14580.0,0.023669912102091732,16.92217032152274,329961.9958529927,0.5236699121020917
14760.0,0.021974488774255407,16.674395037337995,332963.38695971353,0.5219744887742555
14940.0,0.020379061165864416,16.42486893901082,335919.8633687355,0.5203790611658644
15120.0,0.018882359803816536,16.173748068689353,338831.13802109956,0.5188823598038166
15300.0,0.017483089183217244,15.921188393962918,341696.95193201286,0.5174830891832173
15480.0,0.016179925218457174,15.667345612897085,344517.07414233434,0.5161799252184571
15660.0,0.014971513265222383,15.41237496428379,347291.3016359054,0.5149715132652224
15840.0,0.013856466651113265,15.156431042901897,350019.45922362775,0.5138564666511133
16020.0,0.0128333656593065,14.89966761961712,352701.39939515886,0.5128333656593065
16200.0,0.011900756915688473,14.642237466182616,355337.00213907176,0.5119007569156885
16380.0,0.011057153135203715,14.384292184628615,357926.17473230493,0.5110571531352037
16560.0,0.01030103318787483,14.125982041154968,360468.85149971285,0.5103010331878748
16740.0,0.00963084244913144,13.867455804461024,362964.99354451586,0.5096308424491315
16920.0,0.009044993402790394,13.608860588467165,365414.58845044,0.5090449934027904
17100.0,0.00854186646831855,13.35034169939805,367817.64995633165,0.5085418664683186
17280.0,0.00811981102692314,13.092042487212735,370174.2176040299,0.5081198110269232
17460.0,0.007777146623601065,12.834104201379393,372484.3563602782,0.5077771466236011
17640.0,0.007512164324571071,12.57666585100285,374748.15621345874,0.507512164324571
17820.0,0.0073231282115474115,12.319864069323632,376965.731745937,0.5073231282115475
18000.0,0.0072082769961176515,12.063832982613564,379137.2216828075,0.5072082769961177
18180.0,0.007165825739088656,11.808704083502173,381262.7884178379,0.5071658257390886
18360.0,0.007193967661085268,11.554606108771985,383342.61751741683,0.5071939676610853
18540.0,0.007290876031947316,11.30166492166635,385376.91720331676,0.5072908760319473
18720.0,0.007454706127590556,11.050003398757903,387365.9178150932,0.5074547061275906
18900.0,0.007683597243991142,10.799741321428268,389309.8712529503,0.5076835972439911
19080.0,0.007975674758836218,10.550995272011928,391209.0504019124,0.5079756747588362
19260.0,0.00832905223216977,10.30387853465995,393063.7485381512,0.5083290522321697
19440.0,0.008741833538059617,10.058501000979293,394874.27871832746,0.5087418335380596
19620.0,0.009212115019934434,9.814969080504975,396640.97315281833,0.5092121150199345
19800.0,0.00973798766279255,9.573385616062081,398364.1825637095,0.5097379876627925
19980.0,0.010317539275978256,9.333849804074402,400044.2755284429,0.5103175392759782
20160.0,0.010948856680661923,9.09645711987588,401681.63781002053,0.5109488566806619
20340.0,0.011630027896554493,8.861299248079813,403276.6716746749,0.5116300278965545
20520.0,0.012359144322739305,8.628464018059521,404829.7951979256,0.5123591443227393
20700.0,0.013134302907821103,8.398035344591777,406341.4415599521,0.5131343029078211
20880.0,0.013953608304876328,8.17009317371301,407812.05833122047,0.5139536083048764
21060.0,0.014815175006945729,7.944713433835138,409242.1067493108,0.5148151750069457
21240.0,0.015717129459042297,7.721967992165226,410632.06098790054,0.5157171294590422
21420.0,0.016657612142857877,7.501924616470521,411982.40741886524,0.5166576121428579
21600.0,0.017634779630544183,7.284646942226601,413293.643868466,0.5176347796305442
21780.0,0.018646806604118906,7.0701944451831755,414566.278868599,0.5186468066041189
21960.0,0.0196918878372096,6.858622419377621,415800.83090408694,0.5196918878372097
22140.0,0.020768240135996922,6.649981960623227,416997.8276569991,0.5207682401359969
22320.0,0.02187410423635779,6.444319955493812,418157.805248988,0.5218741042363578
22500.0,0.023007746654338797,6.241679075821972,419281.30748263595,0.5230077466543388
22680.0,0.02416746148721271,6.042097778724216,420368.8850828063,0.5241674614872127
22860.0,0.025351572162486714,5.84561031215985,421421.0949389951,0.5253515721624867
23040.0,0.026558433132341817,5.652246726026191,422438.4993496798,0.5265584331323419
23220.0,0.02778643151108945,5.462032888786916,423421.66526966146,0.5277864315110894
23400.0,0.029033988653334415,5.274990509624346,424371.16356139386,0.5290339886533344
23580.0,0.030299561670633676,5.091137166101033,425287.56825129205,0.5302995616706336
23760.0,0.03158164488453898,4.9104863373092655,426171.45579200773,0.531581644884539
23940.0,0.0328787712140089,4.733047442481395,427023.40433165437,0.532878771214009
24120.0,0.034189513495271884,4.558825885026937,427843.9929909592,0.5341895134952719
24300.0,0.035512485732318286,4.387823101955771,428633.80114931124,0.5355124857323182
24480.0,0.036846344276295705,4.220036618640012,429393.4077406665,0.5368463442762957
24660.0,0.03818978893217855,4.055460108859961,430123.39056026126,0.5381897889321785
24840.0,0.03954156399118051,3.894083460072231,430824.32558307424,0.5395415639911805
25020.0,0.04090045918747746,3.735892843831145,431496.78629496385,0.5409004591874774
25200.0,0.04226531057790812,3.580870791286421,432141.3430373954,0.5422653105779082
25380.0,0.04363500134342191,3.428996273673358,432758.5623666566,0.5436350013434219
25560.0,0.04500846251114644,3.2802447877030594,433349.0064284432,0.5450084625111464
25740.0,0.04638467359605256,3.134588445753264,433913.23234867875,0.5463846735960526
25920.0,0.047762663161302704,2.9919960707520272,434451.7916414141,0.5477626631613027
26100.0,0.049141509296476454,2.852433295638478,434965.22963462904,0.5491415092964764
26280.0,0.050520340012980156,2.715862667277202,435454.08491473895,0.5505203400129801
26460.0,0.051898333556060244,2.582243754694475,435918.88879058394,0.5518983335560602
26640.0,0.053274718632955985,2.4515332614966883,436360.16477765335,0.553274718632956
26820.0,0.054648774556845824,2.323685142323192,436778.4281032715,0.5546487745568458
27000.0,0.056019831306360963,2.198650723177888,437174.18523344357,0.556019831306361
27180.0,0.057387269500562416,2.0763788254758806,437547.93342202925,0.5573872695005624
27360.0,0.05875052028940238,1.9568158936336115,437900.1602828833,0.5587505202894024
27540.0,0.0601090651598159,1.8399061260232534,438231.34338556754,0.560109065159816
27720.0,0.061462435657717585,1.7255916091043537,438541.94987520634,0.5614624356577176
27900.0,0.06281021302630684,1.6138124545382917,438832.43611702323,0.5628102130263068
28080.0,0.06415202776121653,1.5045069390837769,439103.2473660583,0.5641520277612165
28260.0,0.06548755908317187,1.3976116470644626,439354.81746252987,0.5654875590831718
28440.0,0.06681653432895984,1.293061615192829,439587.5685532646,0.5668165343289598
28620.0,0.06813872826164316,1.1907904795278463,439801.9108395796,0.5681387282616431
28800.0,0.06945396230108863,1.0907306243374841,439998.24235196033,0.5694539623010886
28980.0,0.07076210367601372,0.99281333263106,440176.94875183393,0.5707621036760138
29160.0,0.07206306449889145,0.8969689381206548,440338.4031606956,0.5720630644988914
29340.0,0.07335680076518913,0.803126978365295,440482.96601680137,0.5733568007651891
29520.0,0.0746433112785508,0.7112163488467121,440610.9849595938,0.5746433112785508
29700.0,0.07592263650366822,0.6211654577205865,440722.7947419835,0.5759226365036683
29880.0,0.07719485734871825,0.5329023809831981,440818.7171705605,0.5771948573487182
30060.0,0.07846009387937672,0.44635501778938286,440899.0610737626,0.5784600938793767
30240.0,0.07971850396654934,0.36145124565447884,440964.1222979804,0.5797185039665493
30420.0,0.08097028187008942,0.2781190752701545,441014.18373152905,0.5809702818700895
30600.0,0.08221565676089725,0.19628680466147486,441049.5153563681,0.5822156567608973
30780.0,0.0834548911839217,0.11588317241104683,441070.3743274021,0.5834548911839217
30960.0,0.08468827946470402,0.03683750967455211,441077.0050791435,0.584688279464704
31140.0,0.08591614606222225,-0.040920109288470535,441069.63945947157,0.5859161460622222
31320.0,0.08713884387090898,-0.11745871834498971,441048.49689016945,0.587138843870909
31500.0,0.08835675247482484,-0.1928463127558005,441013.7845538734,0.5883567524748249
31680.0,0.08957027635707679,-0.26714970475453226,440965.6976070176,0.5895702763570768
31860.0,0.09077984306767094,-0.3404343817113219,440904.4194183095,0.590779843067671
32040.0,0.09198590135308657,-0.41276436715180775,440830.1218322222,0.5919859013530866
32220.0,0.0931889192509494,-0.4842020848989752,440742.9654569404,0.5931889192509494
32400.0,0.09438938215326663,-0.5548082266019274,440643.09997615207,0.5943893821532666
32580.0,0.09558779084176783,-0.6246416229111008,440530.66448402806,0.5955877908417678
32760.0,0.09678465949896728,-0.6937591185547493,440405.7878426882,0.5967846594989673
32940.0,0.09798051369863205,-0.762215451565715,440268.5890614064,0.597980513698632
33120.0,0.09917588837939921,-0.8300631369013188,440119.1776967641,0.5991758883793992
33300.0,0.10037132580533945,-0.8973523546923848,439957.65427291946,0.6003713258053395
33480.0,0.10156737351731007,-0.9641308433497322,439784.11072111654,0.60156737351731
33660.0,0.10276458227897865,-1.0304437977484486,439598.6308375218,0.6027645822789787
33840.0,0.10396350402142966,-1.0963337727014164,439401.29075843556,0.6039635040214296
34020.0,0.10516468979028877,-1.1618405919241934,439192.1594518892,0.6051646897902888
34200.0,0.10636868769931444,-1.2270012626834508,438971.2992246062,0.6063686876993144
34380.0,0.10757604089441214,-1.2918498963106093,438738.7662432703,0.6075760408944122
34560.0,0.10878728553202596,-1.3564176347512287,438494.6110690151,0.608787285532026
34740.0,0.11000294877585046,-1.4207325833092959,438238.87920401944,0.6100029487758505
34920.0,0.11122354681578625,-1.4848197497331788,437971.6116490675,0.6112235468157863
35100.0,0.11244958291303699,-1.5487009897778448,437692.84547090746,0.612449582913037
35280.0,0.11368154547520687,-1.6123949593646738,437402.6143782218,0.6136815454752069
35460.0,0.11491990616521305,-1.6759170734469886,437100.94930500136,0.6149199061652131
35640.0,0.1161651180477753,-1.7392794716756048,436787.8790000997,0.6161651180477753
35820.0,0.11741761377717878,-1.8024909909446512,436463.4306217297,0.6174176137771787
36000.0,0.1186778038299399,-1.8655571448835253,436127.63033565064,0.6186778038299399
36180.0,0.11994607478592104,-1.9284801103461617,435780.5039157883,0.619946074785921
36360.0,0.1212227876613538,-1.9912587209340327,435422.0773460202,0.6212227876613539
36540.0,0.122508276297136,-2.0538884675740694,435052.37742185686,0.622508276297136
36720.0,0.12380284580565994,-2.116361506157767,434671.43235074845,0.6238028458056599
36900.0,0.12510677107932047,-2.178666672232149,434279.27234974666,0.6251067710793204
37080.0,0.12642029536373045,-2.2407895027182025,433875.9302392574,0.6264202953637305
37260.0,0.12774362889854418,-2.3027122646168454,433461.44203162636,0.6277436288985442
37440.0,0.12907694762865662,-2.36441399064734,433035.84751330985,0.6290769476286566
37620.0,0.13042039198840386,-2.425870521747651,432599.1908193953,0.6304203919884038
37800.0,0.13177406576124456,-2.487054556351307,432151.52099925204,0.6317740657612445
37980.0,0.13313803501724789,-2.547935706340275,431692.8925721108,0.6331380350172479
38160.0,0.134512327130556,-2.6084805595586475,431223.3660713903,0.6345123271305559
38340.0,0.13589692987882251,-2.668652748757508,430743.0085766139,0.6358969298788225
38520.0,0.13729179062646255,-2.7284130268269644,430251.89423178503,0.6372917906264626
38700.0,0.13869681559337302,-2.7877193481579234,429750.1047491166,0.638696815593373
38880.0,0.14011186921060748,-2.8465269559620734,429237.72989704343,0.6401118692106075
39060.0,0.14153677356430608,-2.904788475366208,428714.8679714775,0.641536773564306
39240.0,0.14297130792899826,-2.962454012083737,428181.6262493024,0.6429713079289983
39420.0,0.14441520839120917,-3.019471256454821,427638.1214231405,0.6444152083912091
39600.0,0.14586816756411072,-3.0757855926342432,427084.48001646635,0.6458681675641107
39780.0,0.14732983439376898,-3.131340212695889,426520.83877818106,0.647329834393769
39960.0,0.1487998140573462,-3.1860762354116705,425947.345055807,0.6487998140573462
40140.0,0.15027766795342498,-3.239932829453226,425364.1571465054,0.650277667953425
40320.0,0.15176291378442833,-3.2928473407555963,424771.4446251694,0.6517629137844283
40500.0,0.15325502573091823,-3.344755423773366,424169.3886488902,0.6532550257309182
40680.0,0.154753434717363,-3.3955911763522493,423558.1822371468,0.654753434717363
40860.0,0.15625752876877474,-3.4452872779318024,422938.03052711906,0.6562575287687747
41040.0,0.15776665345742974,-3.493775130788728,422309.1510035771,0.6577666534574298
41220.0,0.15928011243869863,-3.5409850040244986,421671.7737028527,0.6592801124386987
41400.0,0.1607971680748317,-3.586846179996412,421026.1413904534,0.6607971680748317
41580.0,0.16231704214536272,-3.6312871028867004,420372.5097119338,0.6623170421453627
41760.0,0.1638389166426221,-3.6742355291015776,419711.1473166955,0.6638389166426221
41940.0,0.16536193465067497,-3.7156186791888444,419042.3359544415,0.665361934650675
42120.0,0.16688520130583623,-3.7553633909616346,418366.3705440684,0.6668852013058362
42300.0,0.1684077848367494,-3.7933962735143476,417683.5592148358,0.6684077848367493
42480.0,0.16992871768186296,-3.8296438618168924,416994.2233197088,0.6699287176818629
42660.0,0.1714469976819831,-3.864032771573586,416298.69742082554,0.6714469976819831
42840.0,0.17296158934544045,-3.8964898540349147,415597.32924709923,0.6729615893454405
43020.0,0.1744714251832684,-3.9269423504516214,414890.47962401796,0.6744714251832684
43200.0,0.17597540711165896,-3.9553180458640376,414178.5223757624,0.6759754071116589
