t(s),Tsurface(蚓),Flux(W),E(J),f_liq
0.0,0.0,19.200000000000017,0.0,0.5
180.0,-0.01932190470016241,19.272941025326144,3469.129384558706,0.48067809529983757
360.0,-0.0374661191332724,19.34779159064701,6951.731870875168,0.4625338808667276
540.0,-0.05455029393146992,19.42395533342457,10448.043830891591,0.44544970606853007
720.0,-0.07067965189284922,19.50088038574331,13958.202300325387,0.4293203481071508
900.0,-0.08594773412967743,19.578058230116046,17482.252781746276,0.41405226587032257
1080.0,-0.10043754884722844,19.655020374836713,21020.156449216884,0.39956245115277156
1260.0,-0.11422273715136178,19.731334685962825,24571.796692690194,0.3857772628486382
1440.0,-0.12736864176322,19.80660194973779,28136.985043642995,0.37263135823678
1620.0,-0.1399332595265617,19.8804527869593,31715.46654529567,0.36006674047343834
1800.0,-0.1519680836142069,19.952544917694542,35306.92463048069,0.3480319163857931
1980.0,-0.16351884667391786,20.022560745582002,38910.98556468545,0.33648115332608214
2160.0,-0.1746261763758602,20.090205226736366,42527.22250549799,0.3253738236241398
2340.0,-0.18532617383735794,20.15520399029468,46155.159223751034,0.31467382616264206
2520.0,-0.19565092422402952,20.217301680951756,49794.27352632235,0.3043490757759705
2700.0,-0.20562894771299187,20.276260497157022,53444.00041581062,0.2943710522870081
2880.0,-0.21528559800655783,20.331858901679393,57103.73501811291,0.28471440199344217
3060.0,-0.22464341470533802,20.383890483950225,60772.83530522395,0.275356585294662
3240.0,-0.23372243507748286,20.432162955985397,64450.62463730132,0.26627756492251714
3420.0,-0.24254047008371996,20.47649726579746,68136.39414514486,0.25745952991628007
3600.0,-0.25111334892431325,20.516726814070786,71829.4049716776,0.24888665107568675
3780.0,-0.25945513585379687,20.55269676151849,75528.89038875094,0.24054486414620313
3960.0,-0.26757832255320435,20.58426341578882,79234.05780359292,0.23242167744679565
4140.0,-0.27549399894959514,20.611293688075722,82944.09066744655,0.22450600105040486
4320.0,-0.2832120050219677,20.633664610719574,86658.15029737608,0.2167879949780323
4500.0,-0.290741065825062,20.651262908088196,90375.37762083196,0.20925893417493802
4680.0,-0.2980889116927327,20.663984613917794,94094.89485133716,0.20191108830726728
4860.0,-0.3052623853458528,20.671734729076352,97815.8071025709,0.19473761465414718
5040.0,-0.31226753742198377,20.6744269144113,101537.20394716493,0.18773246257801623
5220.0,-0.319109711761735,20.67198321395837,105258.16092567744,0.18089028823826497
5400.0,-0.32579362162670716,20.664333804336376,108977.74101045799,0.17420637837329284
5580.0,-0.3323234178833959,20.651416766637766,112694.99602845279,0.16767658211660408
5760.0,-0.338702750064054,20.6331778775553,116408.96804641275,0.16129724993594602
5940.0,-0.3449348211071214,20.609570416868145,120118.690721449,0.15506517889287857
6120.0,-0.35102243648462483,20.58055498874911,123823.19061942384,0.14897756351537517
6300.0,-0.356968048340273,20.54609935465757,127521.4885032622,0.14303195165972699
6480.0,-0.36277379518844094,20.506178275851013,131212.60059291538,0.13722620481155906
6660.0,-0.3684415376595756,20.460773363785158,134895.5397983967,0.1315584623404244
6840.0,-0.3739728907207067,20.409872936887606,138569.31692703647,0.12602710927929328
7020.0,-0.37936925274973243,20.353471882375366,142232.94186586404,0.12063074725026757
7200.0,-0.3846318317981505,20.291571521958634,145885.42473981658,0.11536816820184947
7380.0,-0.38976166933817896,20.22417948041992,149525.77704629215,0.11023833066182104
7560.0,-0.39475966175612,20.15130955619221,153153.01276640675,0.10524033824388002
7740.0,-0.3996265798237958,20.07298159317976,156766.14945317912,0.10037342017620421
7920.0,-0.40436308635344237,19.98922135316868,160364.2092967495,0.09563691364655763
8100.0,-0.40896975221814014,19.90006038827135,163946.22016663835,0.09103024778185986
8280.0,-0.41344707089931726,19.805535912931028,167511.21663096594,0.08655292910068274
8460.0,-0.41779547170475373,19.7056906750894,171058.24095248204,0.08220452829524627
8640.0,-0.4220153317845248,19.600572826185083,174586.34406119536,0.07798466821547517
8820.0,-0.4261069870582364,19.490235789712465,178094.5865033436,0.07389301294176359
9000.0,-0.4300707421544424,19.37473812812203,181582.03936640557,0.06992925784555759
9180.0,-0.43390687945215417,19.254143407890197,185047.78517982582,0.06609312054784583
9360.0,-0.43761566730463336,19.12852006263088,188490.91879109936,0.06238433269536664
9540.0,-0.4411973675170755,18.997941254155062,191910.54821684727,0.0588026324829245
9720.0,-0.4446522421422036,18.862484731421315,195305.7954685031,0.05534775785779639
9900.0,-0.44798055965107336,18.722232687346693,198675.79735222552,0.05201944034892664
10080.0,-0.45118260053044607,18.57727161347528,202019.70624265107,0.048817399469553935
10260.0,-0.4542586623528257,18.42769215252482,205336.69083010554,0.04574133764717431
10440.0,-0.4572090643605907,18.273588948850367,208625.9368408986,0.04279093563940928
10620.0,-0.46003415160151656,18.115060496884865,211886.64773033786,0.03996584839848344
10800.0,-0.4627342986493181,17.952208987629156,215118.0453481111,0.03726570135068191
10980.0,-0.46530991293959106,17.785140153280558,218319.3705757016,0.034690087060408936
11160.0,-0.4677614377486365,17.61396311009944,221489.88393551952,0.03223856225136351
11340.0,-0.4700893548400892,17.438790199623796,224628.8661714518,0.02991064515991082
11520.0,-0.4722941868019877,17.25973682835276,227735.6188005553,0.027705813198012297
11700.0,-0.47437649909489343,17.076921306025053,230809.4646356398,0.025623500905106567
11880.0,-0.47633690182985594,16.89046468262712,233849.74827851268,0.02366309817014406
12060.0,-0.4781760512934179,16.700490584270828,236855.83658368143,0.021823948706582108
12240.0,-0.4798946512354085,16.507125048084813,239827.1190923367,0.020105348764591524
12420.0,-0.4814934539340044,16.310496356267475,242763.00843646485,0.01850654606599561
12600.0,-0.48297326105138405,16.11073486945387,245662.94071296655,0.01702673894861595
12780.0,-0.48433492429228453,15.907972859550004,248526.37582768555,0.01566507570771547
12960.0,-0.4855793458768581,15.702344342189699,251352.7978092797,0.014420654123141918
13140.0,-0.4867074788384028,15.49398490897248,254141.71509289474,0.013292521161597182
13320.0,-0.48772032715581304,15.283031559639245,256892.6607736298,0.012279672844186962
13500.0,-0.4886189457299384,15.069622534344532,259605.1928298118,0.011381054270061586
13680.0,-0.48940444021244783,14.8538971461842,262278.89431612496,0.010595559787552167
13860.0,-0.4900779666952692,14.63599561413614,264913.37352666946,0.009922033304730793
14040.0,-0.49064073126819574,14.416058896571968,267508.2641280524,0.00935926873180426
14220.0,-0.4910939894518235,14.194228525496536,270063.2252626418,0.008906010548176524
14400.0,-0.49143904551259787,13.970646441670295,272577.94162214245,0.008560954487402128
14580.0,-0.49167725166639664,13.745454830770012,275052.12349168106,0.008322748333603358
14760.0,-0.49181000717676365,13.518795960739828,277485.50676461426,0.008189992823236347
14940.0,-0.4918387573536227,13.29081202048412,279877.8529283014,0.008161242646377298
15120.0,-0.4917649924580424,13.061644960052536,282228.94902111084,0.008235007541957606
15300.0,-0.49159024651838845,12.83143633246392,284538.60756095435,0.008409753481611548
15480.0,-0.4913160960629881,12.600327137315182,286806.66644567106,0.008683903937011905
15660.0,-0.4909441587742402,12.36845766631942,289032.98882560857,0.009055841225759809
15840.0,-0.49047609206892373,12.135967350913575,291217.462948773,0.00952390793107627
16020.0,-0.4899135916093015,11.902994612076526,293360.0019789468,0.01008640839069852
16200.0,-0.4892583897494701,11.669676712492922,295460.5437871955,0.010741610250529887
16380.0,-0.48851225392126546,11.436149611199287,297519.0507172114,0.01148774607873454
16560.0,-0.4876769849639213,11.202547820843478,299535.5093249632,0.012323015036078688
16740.0,-0.48675441540155584,10.969004267688115,301509.9300931471,0.01324558459844416
16920.0,-0.4857464076724622,10.735650154485512,303442.3471209545,0.014253592327537812
17100.0,-0.4846548523140836,10.502614826349093,305332.8177896973,0.015345147685916383
17280.0,-0.4834816661074599,10.27002563974405,307181.42240485124,0.016518333892540094
17460.0,-0.48222879018485737,10.038007834717167,308988.2638151003,0.01777120981514263
17640.0,-0.4808981881042095,9.806684410483655,310753.4670089874,0.01910181189579052
17820.0,-0.4794918438939336,9.576176004485562,312477.1786897948,0.020508156106066378
18000.0,-0.4780117600716146,9.34660077503424,314159.56682930095,0.02198823992838539
18180.0,-0.47645995563998583,9.118074287646742,315800.8202010774,0.023540044360014167
18360.0,-0.4748384640635848,8.890709405182605,317401.14789401024,0.02516153593641518
18540.0,-0.473149331229395,8.664616181885666,318960.7788067497,0.02685066877060499
18720.0,-0.4713946133947436,8.439901761432074,320479.9611238075,0.02860538660525641
18900.0,-0.4695763751256634,8.216670279082901,321958.9617740424,0.030423624874336586
19080.0,-0.4676966872288928,7.995022768037367,323398.0658722891,0.03230331277110721
19260.0,-0.4657576246806249,7.775057070078805,324797.5761449033,0.034242375319375074
19440.0,-0.4637612645550875,7.556867750603233,326157.8123400119,0.03623873544491252
19620.0,-0.46170968395598366,7.340546018116989,327479.11062327295,0.03829031604401634
19800.0,-0.4596049579537794,7.126179648286399,328761.8229599645,0.040395042046220575
19980.0,-0.4574491575317912,6.913852912619579,330006.31648423604,0.04255084246820878
20160.0,-0.4552443475439743,6.703646511856671,331212.97285637027,0.044755652456025696
20340.0,-0.45299258468728193,6.495637514141799,332382.1876089158,0.04700741531271807
20520.0,-0.45069591549141613,6.289899298045657,333514.369482564,0.04930408450858387
20700.0,-0.4483563743287592,6.086501500504582,334609.9397526548,0.05164362567124081
20880.0,-0.44597598144722234,5.885509969737957,335669.33154720766,0.054024018552777664
21060.0,-0.44355674102872006,5.686986723201232,336692.9891573839,0.05644325897127994
21240.0,-0.44110063927592275,5.490989910628558,337681.36734129704,0.058899360724077254
21420.0,-0.4386096425299087,5.297573782214293,338634.9306220956,0.061390357470091306
21600.0,-0.43608569542128484,5.106788661977835,339554.1525812516,0.06391430457871516
21780.0,-0.4335307190573033,4.918680926352711,340439.5151479951,0.06646928094269672
21960.0,-0.43094660924745726,4.733292988034913,341291.50788584136,0.06905339075254274
22140.0,-0.42833523476998314,4.550663285121502,342110.6272771632,0.07166476523001686
22320.0,-0.425698435681659,4.370826275564809,342897.3760067649,0.074301564318341
22500.0,-0.4230380216732239,4.1938124369627205,343652.26224541815,0.07696197832677609
22680.0,-0.4203557704727048,4.019648271699978,344375.7989343242,0.07964422952729522
22860.0,-0.41765342629886626,3.8483563174497646,345068.5030714651,0.08234657370113374
23040.0,-0.41493269836695634,3.6799551630392684,345730.8950008122,0.08506730163304366
23220.0,-0.4121952594488538,3.5144594696769067,346363.497705354,0.08780474055114618
23400.0,-0.40944274448965867,3.3518799975327673,346966.8361049099,0.09055725551034133
23580.0,-0.4066767492827132,3.1922236376575515,347541.43635968823,0.09332325071728681
23760.0,-0.4038988292049627,3.0354934492190435,348087.82518054766,0.09610117079503733
23940.0,-0.4011104980145048,2.8816887020282542,348606.52914691274,0.09888950198549518
24120.0,-0.3983132267120985,2.730804924320898,349098.0740332905,0.10168677328790149
24300.0,-0.3955084424683321,2.5828339557526645,349562.98414532596,0.10449155753166789
24480.0,-0.3926975276180721,2.4377640055600067,350001.78166632674,0.10730247238192792
24660.0,-0.389881818723732,2.2955797158306916,350414.9860151763,0.11011818127626799
24840.0,-0.3870626057088195,2.1562622298211616,350803.1132165441,0.11293739429118049
25020.0,-0.3842411310631321,2.0197892652502594,351166.6752842891,0.11575886893686788
25200.0,-0.38141858912088455,1.8861351924912544,351506.17961893755,0.11858141087911545
25380.0,-0.37859612541295606,1.7552711175765152,351822.1284201013,0.12140387458704394
25560.0,-0.3757748360943529,1.6271649699213606,352115.0181146872,0.12422516390564708
25740.0,-0.37295576744788295,1.5017815946657267,352385.338801727,0.12704423255211705
25920.0,-0.37013991546493674,1.379082849524477,352633.5737146414,0.12986008453506326
26100.0,-0.36732822550416744,1.2590277060291821,352860.1987017266,0.13267177449583256
26280.0,-0.36452159202875534,1.1415723550362062,353065.68172563316,0.13547840797124466
26460.0,-0.3617208584228297,1.0266703163679631,353250.4823825794,0.1382791415771703
26640.0,-0.3589268168875147,0.9142725524462125,353415.05144201976,0.1410731831124853
26820.0,-0.3561402084169445,0.8043275857683432,353559.83040745807,0.1438597915830555
27000.0,-0.3533617228544822,0.6967816200695532,353685.2510990706,0.1466382771455178
27180.0,-0.35059199902925064,0.5915786650061645,353791.7352587717,0.14940800097074936
27360.0,-0.34783162497296805,0.4886606641873998,353879.6941783254,0.15216837502703195
27540.0,-0.34508113821695274,0.3879676263753797,353949.528351073,0.15491886178304726
27720.0,-0.3423410261690361,0.2894377596655461,354001.6271478128,0.1576589738309639
27900.0,-0.3396117265699986,0.1930076084523576,354036.3685173342,0.1603882734300014
28080.0,-0.3368936280290091,0.09861219297795536,354054.1187120703,0.16310637197099093
28260.0,-0.3341870706374221,0.006185151254488034,354055.23203929607,0.1658129293625779
28440.0,-0.331492346660153,-0.08434111685596131,354040.050638262,0.16850765333984702
28620.0,-0.328809701303719,-0.1730353036263579,354008.90428360924,0.171190298696281
28800.0,-0.32613933355990143,-0.2599670457433786,353962.11021537543,0.17386066644009857
28980.0,-0.32348139712385,-0.3452067751143954,353899.97299585486,0.17651860287615
29160.0,-0.32083600138531676,-0.42882556844299324,353822.7843935351,0.17916399861468324
29340.0,-0.3182032124915722,-0.5108949958185375,353730.8232942878,0.18179678750842782
29520.0,-0.31558305448042473,-0.5914869685699835,353624.3556399452,0.18441694551957527
29700.0,-0.31297551048162975,-0.6706735866387914,353503.6343943502,0.18702448951837025
29880.0,-0.3103805239848441,-0.748526985729576,353368.8995369189,0.18961947601515589
30060.0,-0.3077980001721518,-0.8251191845009048,353220.37808370875,0.1922019998278482
30240.0,-0.3052278073130572,-0.900521932061629,353058.28413593763,0.1947721926869428
30420.0,-0.302669778219713,-0.9748065560407029,352882.8189558503,0.19733022178028697
30600.0,-0.30012371176003233,-1.0480438115007158,352694.1710697802,0.19987628823996767
30780.0,-0.2975893744262032,-1.1203037309666597,352492.5163982062,0.2024106255737968
30960.0,-0.29506650195601386,-1.191655475842708,352278.0184125545,0.20493349804398614
31140.0,-0.2925548010042732,-1.2621671894900337,352050.8283184463,0.20744519899572678
31320.0,-0.2900539508615058,-1.3319058522386595,351811.0852650433,0.20994604913849418
31500.0,-0.287563605216988,-1.400937138605538,351558.9165800943,0.21243639478301202
31680.0,-0.28508339396308974,-1.4693252769897436,351294.43803023617,0.21491660603691026
31860.0,-0.28261292503778795,-1.537132912113641,351017.7541060557,0.21738707496221205
32040.0,-0.2801517863021213,-1.6044209704763852,350728.95833136997,0.2198482136978787
32220.0,-0.2776995474492694,-1.6712485290827035,350428.13359613507,0.2223004525507306
32400.0,-0.27525576194185525,-1.7376726877063182,350115.3525123479,0.22474423805814475
32580.0,-0.27281996897399113,-1.8037484449424899,349790.67779225827,0.22718003102600887
32760.0,-0.27039169545451935,-1.8695285782993563,349454.1626481644,0.22960830454548065
32940.0,-0.2679704580078325,-1.9350635285716973,349105.8512130215,0.23202954199216752
33120.0,-0.2655557649886009,-2.00040128873436,348745.7789810493,0.2344442350113991
33300.0,-0.26314711850668376,-2.0655872975856875,348373.9732674839,0.23685288149331624
33480.0,-0.2607440164584568,-2.130664338363201,347990.4536865785,0.2392559835415432
33660.0,-0.25834595456075204,-2.1956724425460052,347595.2326469202,0.24165404543924796
33840.0,-0.25595242838358057,-2.2606487990489326,347188.3158630914,0.24404757161641943
34020.0,-0.2535629353777812,-2.3256276690043283,346769.7028826706,0.24643706462221882
34200.0,-0.2511769768937347,-2.390640306317102,346339.3876275335,0.2488230231062653
34380.0,-0.24879406018727065,-2.4557148841681418,345897.35894838325,0.2512059398127293
34560.0,-0.24641370040890193,-2.5208764276299496,345443.60119140986,0.2535862995910981
34740.0,-0.24403542257253508,-2.5861467525468442,344978.0947759514,0.2559645774274649
34920.0,-0.24165876349982243,-2.651544410819679,344500.81678200385,0.2583412365001776
35100.0,-0.23928327373635255,-2.7170846422227566,344011.74154640373,0.26071672626364745
35280.0,-0.23690851943591645,-2.7827793328673756,343510.8412664876,0.26309148056408355
35460.0,-0.2345340842091278,-2.8486369804130747,342998.08661001327,0.2654659157908722
35640.0,-0.23215957093273626,-2.9146626661140287,342473.44733011274,0.26784042906726374
35820.0,-0.2297846035160323,-2.9808580337737416,341936.8928840335,0.2702153964839677
36000.0,-0.2274088286208172,-3.0472212756670545,341388.39305441343,0.27259117137918276
36180.0,-0.22503191733149033,-3.113747125473684,340827.91857182817,0.2749680826685097
36360.0,-0.22265356677189418,-3.180426858252762,340255.4417373427,0.2773464332281058
36540.0,-0.22027350166565676,-3.247248297472989,339670.9370437976,0.27972649833434327
36720.0,-0.2178914758368719,-3.314195829097558,339074.38179456,0.2821085241631281
36900.0,-0.21550727364807337,-3.381250422708304,338465.7567184725,0.28449272635192663
37080.0,-0.2131207113725758,-3.448389659637827,337845.0465797377,0.2868792886274242
37260.0,-0.21073163849838486,-3.5155877680633947,337212.24078148627,0.28926836150161517
37440.0,-0.20833993896100866,-3.582815665001248,336567.33396178606,0.29166006103899134
37620.0,-0.20594553230264714,-3.650041005124553,335910.3265808636,0.2940544676973529
37800.0,-0.203548374755379,-3.7172282363137694,335241.22549832717,0.296451625244621
37980.0,-0.2011484602461202,-3.784338661832968,334560.04453919723,0.2988515397538798
38160.0,-0.19874582132128424,-3.8513305090113095,333866.8050475752,0.30125417867871573
38340.0,-0.19634052998923807,-3.9181590042946133,333161.53642680217,0.30365947001076193
38520.0,-0.19393269847881658,-3.9847764545178777,332444.27666498895,0.30606730152118344
38700.0,-0.1915224799123262,-4.05113233423599,331715.0728448265,0.3084775200876738
38880.0,-0.18911006889164964,-4.117173378936663,330973.9816366179,0.3108899311083504
39060.0,-0.1866957019962376,-4.182843683946786,330221.0697735075,0.31330429800376236
39240.0,-0.18427965819195935,-4.248084808830972,329456.4145079179,0.31572034180804065
39420.0,-0.1818622591499653,-4.31283588706939,328680.1040482454,0.3181377408500347
39600.0,-0.17944386947490473,-4.377033740790303,327892.23797490314,0.32055613052509524
39780.0,-0.17702489684202607,-4.440613000322408,327092.9276348451,0.32297510315797395
39960.0,-0.1746057920428786,-4.50350622832153,326282.2965137472,0.3253942079571214
40140.0,-0.17218704893952338,-4.565644048216881,325460.4805850682,0.3278129510604766
40320.0,-0.16976920432734974,-4.626955276713192,324627.6286352598,0.33023079567265023
40500.0,-0.16735283770678402,-4.687367060076608,323783.90256444603,0.332647162293216
40680.0,-0.1649385709643634,-4.746805013925044,322929.4776619395,0.3350614290356366
40860.0,-0.16252706796383584,-4.805193366236461,322064.54285601695,0.33747293203616413
41040.0,-0.16011903404813108,-4.862455103282961,321189.30093742604,0.3398809659518689
41220.0,-0.15771521545322847,-4.918512118192528,320303.9687561514,0.3422847845467715
41400.0,-0.15531639863512867,-4.973285361836503,319408.7773910208,0.3446836013648713
41580.0,-0.15292340951130975,-5.026694995736192,318503.97229178826,0.3470765904886902
41760.0,-0.15053711261822264,-5.078660546679719,317589.8133933859,0.34946288738177733
41940.0,-0.1481584101865457,-5.129101062737282,316666.57520209317,0.35184158981345426
