t(s),Tsurface(蚓),Flux(W),E(J),f_liq
0.0,0.0,38.400000000000034,0.0,0.0
180.0,-0.6787488669040984,32.16014549988671,5788.826189979608,0.0
360.0,-0.8991264847276014,30.279337050180324,11239.106859012067,0.0
540.0,-1.0127784554486552,29.40833882811265,16532.607848072344,0.0
720.0,-1.0896028920133891,28.87927692880138,21730.877695256593,0.0
900.0,-1.152423687077162,28.472497567192285,26855.927257351206,0.0
1080.0,-1.209453849954779,28.108321469329994,31915.425121830605,0.0
1260.0,-1.2637060690666084,27.757303948623928,36911.73983258291,0.0
1440.0,-1.316289991681946,27.408548866300805,41845.27862851706,0.0
1620.0,-1.3676142382464018,27.05805959332421,46715.729355315416,0.0
1800.0,-1.41782890699298,26.704413484426123,51522.523782512115,0.0
1980.0,-1.4669889173751283,26.347151207819714,56265.010999919665,0.0
2160.0,-1.5151143365090463,25.98617652502754,60942.52277442462,0.0
2340.0,-1.5622126512107968,25.621532516097233,65554.39862732212,0.0
2520.0,-1.6082869836973357,25.25331802908073,70099.99587255665,0.0
2700.0,-1.6533391177634533,24.881656331606315,74578.69401224579,0.0
2880.0,-1.6973706101712869,24.50668318225465,78989.89698505163,0.0
3060.0,-1.7403831958849447,24.128542122427056,83333.0345670885,0.0
3240.0,-1.7823789328918238,23.747382453376765,87607.56340869631,0.0
3420.0,-1.8233602508777993,23.363358214219495,91812.96788725581,0.0
3600.0,-1.8633299642575598,22.97662753640925,95948.76084380948,0.0
3780.0,-1.9022912718403884,22.587352143592874,100014.4842296562,0.0
3960.0,-1.9402477513451832,22.195696911666097,104009.7096737561,0.0
4140.0,-1.9772033518056906,21.801829457881727,107934.03897617481,0.0
4320.0,-2.0131623850057707,21.405919747827465,111787.10453078375,0.0
4500.0,-2.0481295163859126,21.00813971643437,115568.56967974194,0.0
4680.0,-2.0821097556051864,20.608662901853545,119278.12900207557,0.0
4860.0,-2.1151084468478096,20.207664091988306,122915.50853863347,0.0
5040.0,-2.147131258927804,19.805318983784158,126480.46595571462,0.0
5220.0,-2.1781841752312845,19.40180385545818,129972.7906496971,0.0
5400.0,-2.2082734835298736,18.99729525184612,133392.3037950294,0.0
5580.0,-2.2374057656956445,18.59196968301099,136738.85833797138,0.0
5760.0,-2.265587887345856,18.186003336212433,140012.3389384896,0.0
5940.0,-2.292826987444061,17.77957180129153,143212.6618627221,0.0
6120.0,-2.3191304678825615,17.37284980947982,146339.77482842846,0.0
6300.0,-2.344505983069692,16.96601098559872,149393.65680583622,0.0
6480.0,-2.368961429543887,16.559227613574713,152374.31777627967,0.0
6660.0,-2.3925049356350234,16.152670415156994,155281.79845100793,0.0
6840.0,-2.415144851192086,15.746508341688985,158116.16995251193,0.0
7020.0,-2.436889737394727,15.340908378751966,160877.5334606873,0.0
7200.0,-2.4577483566649665,14.936035363467925,163566.01982611153,0.0
7380.0,-2.477729662693817,14.532051814221214,166181.78915267135,0.0
7560.0,-2.4968427905963666,14.129117772532599,168725.0303517272,0.0
7740.0,-2.5150970472074916,13.72739065679687,171195.96066995064,0.0
7920.0,-2.532501901529155,13.327025127573153,173594.82519291382,0.0
8100.0,-2.5490669753390365,12.928172964100034,175921.89632645182,0.0
8280.0,-2.5648020339690127,12.530982951690689,178177.47325775615,0.0
8460.0,-2.5797169772609765,12.13560077964941,180361.88139809304,0.0
8640.0,-2.593821830706339,11.742168949339085,182475.47180897408,0.0
8820.0,-2.6071267367745516,11.3508266920194,184518.62061353758,0.0
9000.0,-2.619641946435023,10.961709896067378,186491.7283948297,0.0
9180.0,-2.6313778108758483,10.574951043186045,188395.2195826032,0.0
9360.0,-2.6423447734219407,10.190679153202375,190229.54183017963,0.0
9540.0,-2.65255336165424,9.809019737053072,191995.1653828492,0.0
9720.0,-2.6620141797309866,9.430094757555514,193692.5824392092,0.0
9900.0,-2.670737900911245,9.054022597561124,195322.3065067702,0.0
10080.0,-2.6787352602802152,8.680918035090478,196884.87175308648,0.0
10260.0,-2.6860170476751946,8.310892225052077,198380.83235359585,0.0
10440.0,-2.6925941008104974,7.944052687150271,199810.7618372829,0.0
10620.0,-2.698477298599059,7.580503299593498,201175.25243120972,0.0
10800.0,-2.7036775546679643,7.220344298219579,202474.91440488925,0.0
10980.0,-2.7082058110646683,6.863672280661639,203710.37541540834,0.0
11160.0,-2.7120730321502333,6.510580215186532,204882.27985414193,0.0
11340.0,-2.7152901986755733,6.1611574538450755,205991.28819583406,0.0
11520.0,-2.7178683020362997,5.815489749583332,207038.07635075905,0.0
11700.0,-2.7198183387014665,5.47365927697355,208023.3350206143,0.0
11880.0,-2.7211513048112854,5.135744656233128,208947.76905873624,0.0
12060.0,-2.7218781909385488,4.801820980211397,209812.0968351743,0.0
12240.0,-2.722009977008398,4.471959844034224,210617.04960710046,0.0
12420.0,-2.72155762737083,4.146229377107934,211363.3708949799,0.0
12600.0,-2.7205320860202127,3.8246942771960932,212051.81586487519,0.0
12780.0,-2.718944271955948,3.5074158462940277,212683.1507172081,0.0
12960.0,-2.7168050746783896,3.1944520280379383,213258.15208225494,0.0
13140.0,-2.7141253498139792,2.8858574463977495,213777.60642260654,0.0
13320.0,-2.710915914863598,2.5816834454151856,214242.30944278126,0.0
13500.0,-2.707187545068078,2.281978129760573,214653.06550613817,0.0
13680.0,-2.702950969384864,1.986786405894,215010.6870591991,0.0
13860.0,-2.6982168665698025,1.6961500236295555,215315.9940634524,0.0
14040.0,-2.6929958613581473,1.4101076179128484,215569.81343467673,0.0
14220.0,-2.687298520738907,1.128694750634344,215772.97848979093,0.0
14400.0,-2.6811353503167674,0.8519439523139065,215926.32840120743,0.0
14580.0,-2.6745167907559257,0.5798847635032727,216030.707658638,0.0
14760.0,-2.6674532143003518,0.31254377576535314,216086.96553827578,0.0
14940.0,-2.6599549213650544,0.04994467210158144,216095.95557925405,0.0
15120.0,-2.6520321371932103,-0.20789173329042146,216058.53506726178,0.0
15300.0,-2.643695008574065,-0.46094745603403375,215975.56452517567,0.0
15480.0,-2.6349536006168592,-0.709207303460359,215847.9072105528,0.0
15660.0,-2.625817893576101,-0.952658837446756,215676.4286198124,0.0
15840.0,-2.6162977797238747,-1.1912923382792258,215461.99599892212,0.0
16020.0,-2.606403060264992,-1.4251007695984157,215205.4778603944,0.0
16200.0,-2.5961434422911376,-1.6540797444791109,214907.74350638816,0.0
16380.0,-2.5855285357704054,-1.8782274926816822,214569.66255770545,0.0
16560.0,-2.5745678505688927,-2.097544829103215,214192.10448846687,0.0
16740.0,-2.563270793501334,-2.312035123445833,213775.9381662466,0.0
16920.0,-2.5516466654080614,-2.5217042711087143,213322.03139744705,0.0
17100.0,-2.5397046582559035,-2.7265606653008203,212831.2504776929,0.0
17280.0,-2.527453852260975,-2.926615170360198,212304.45974702807,0.0
17460.0,-2.5149032130316566,-3.12188109625658,211742.52114970188,0.0
17640.0,-2.5020615887304065,-3.3123741742433372,211146.29379833807,0.0
17820.0,-2.4889377072534615,-3.498112533615546,210516.63354228728,0.0
18000.0,-2.475540173427817,-3.6791166795209738,209854.39253997352,0.0
18180.0,-2.461877466225329,-3.8554094717613885,209160.41883505648,0.0
18360.0,-2.447957935994101,-4.027016104511961,208435.55593624432,0.0
18540.0,-2.433789801707864,-4.193964086877689,207680.64240060633,0.0
18720.0,-2.4193811482343373,-4.35628322419601,206896.51142025104,0.0
18900.0,-2.4047399236241196,-4.514005599986396,206083.9904122535,0.0
19080.0,-2.3898739364220205,-4.667165558438376,205243.9006117346,0.0
19260.0,-2.374790853003235,-4.815799687321156,204377.0566680168,0.0
19440.0,-2.3594981949372276,-4.9599468011893935,203484.2662438027,0.0
19620.0,-2.3440033363826216,-5.09964792475122,202566.32961734748,0.0
19800.0,-2.328313501516922,-5.2349462762571495,201624.03928762118,0.0
19980.0,-2.312435762005314,-5.365887250759961,200658.1795824844,0.0
20160.0,-2.2963770345132968,-5.492518403088581,199669.52626992844,0.0
20340.0,-2.2801440782683904,-5.614889430371883,198658.8461724615,0.0
20520.0,-2.2637434926766247,-5.733052153940959,197626.8967847521,0.0
20700.0,-2.2471817150000235,-5.847060500432586,196574.42589467423,0.0
20880.0,-2.230465018101729,-5.956970481909654,195502.17120793049,0.0
21060.0,-2.2135995082659443,-6.062840174809451,194410.8599764648,0.0
21240.0,-2.196591123100299,-6.164729697525153,193301.20863091026,0.0
21420.0,-2.179445629528711,-6.262701186421216,192173.92241735445,0.0
21600.0,-2.162168621883264,-6.3568187700793315,191029.69503874017,0.0
21780.0,-2.1447655201040554,-6.447148541568584,189869.20830125784,0.0
21960.0,-2.127241568056375,-6.533758528529867,188693.13176612247,0.0
22140.0,-2.109601831974989,-6.6167186608638096,187502.122407167,0.0
22320.0,-2.0918511990456534,-6.6961007358092335,186296.82427472132,0.0
22500.0,-2.073994376134341,-6.771978380199493,185077.86816628542,0.0
22680.0,-2.0560358886750003,-6.844427009684742,183845.87130454218,0.0
22860.0,-2.037980079726903,-6.913523784709184,182601.43702329454,0.0
23040.0,-2.0198311092129484,-6.979347563035879,181345.15446194808,0.0
23220.0,-2.0015929533504497,-7.0419788486147965,180077.59826919742,0.0
23400.0,-1.9832694042861287,-7.1014997365952555,178799.32831661028,0.0
23580.0,-1.9648640699471605,-7.157993854289853,177510.8894228381,0.0
23760.0,-1.946380374120148,-7.211546297904444,176212.8110892153,0.0
23940.0,-1.9278215567699746,-7.262243564857987,174905.60724754087,0.0
24120.0,-1.9091906746104055,-7.3101734815257835,173589.77602086624,0.0
24300.0,-1.8904906019381997,-7.355425126251789,172265.79949814093,0.0
24480.0,-1.8717240317423416,-7.398088747488528,170934.143523593,0.0
24660.0,-1.8528934770997683,-7.438255676938051,169595.25750174414,0.0
24840.0,-1.834001272868631,-7.476018237583531,168249.5742189791,0.0
25020.0,-1.8150495776897828,-7.511469646519015,166897.50968260568,0.0
25200.0,-1.7960403763066657,-7.544703912503743,165539.462978355,0.0
25380.0,-1.776975482213293,-7.57581572818912,164175.81614728097,0.0
25560.0,-1.757856540639354,-7.604900356988284,162806.93408302308,0.0
25740.0,-1.738685031880758,-7.632053514582407,161433.16445039824,0.0
25920.0,-1.719462274983175,-7.657371245083566,160054.8376262832,0.0
26100.0,-1.7001894317851978,-7.6809497919005585,158672.2666637411,0.0
26280.0,-1.680867511326837,-7.702885463382682,157285.7472803322,0.0
26460.0,-1.6614973746279655,-7.723274493345918,155895.55787152995,0.0
26640.0,-1.6420797398402078,-7.742212896616702,154501.95955013894,0.0
26820.0,-1.622615187774548,-7.759796319760437,153105.19621258206,0.0
27000.0,-1.6031041678056162,-7.77611988719465,151705.494632887,0.0
27180.0,-1.5835470041522484,-7.7912780429203,150303.06458516137,0.0
27360.0,-1.563943902532439,-7.805364388139009,148898.09899529634,0.0
27540.0,-1.5442949571892832,-7.8184715150586355,147490.77412258578,0.0
27720.0,-1.5246001582829227,-7.830690837224844,146081.2497718853,0.0
27900.0,-1.5048593996418524,-7.842112416751017,144669.66953687012,0.0
28080.0,-1.4850724868652243,-7.852824788854045,143256.16107487638,0.0
28260.0,-1.4652391457660743,-7.862914784137931,141840.83641373154,0.0
28440.0,-1.4453590311435722,-7.872467349100921,140423.79229089338,0.0
28620.0,-1.4254317358706103,-7.881565365375092,139005.11052512587,0.0
28800.0,-1.4054568002812031,-7.890289468238738,137584.8584208429,0.0
28980.0,-1.3854337218403594,-7.898717864972804,136163.08920514781,0.0
29160.0,-1.365361965077206,-7.906926153660552,134739.84249748892,0.0
29340.0,-1.3452409717603762,-7.9149871430570276,133315.14481173866,0.0
29520.0,-1.3250701712928745,-7.922970674178722,131889.0100903865,0.0
29700.0,-1.3048489913018637,-7.930943444286098,130461.440270415,0.0
29880.0,-1.2845768683971408,-7.938968833950173,129032.42588030397,0.0
30060.0,-1.2642532590704405,-7.947106737910698,127601.94666748005,0.0
30240.0,-1.243877650706148,-7.955413400445977,126169.97225539977,0.0
30420.0,-1.2234495726725465,-7.963941255982992,124736.46282932283,0.0
30600.0,-1.2029686074613817,-7.972738775682569,123301.36984969997,0.0
30780.0,-1.1824344018422774,-7.981850320734523,121864.63679196776,0.0
30960.0,-1.1618466779974308,-7.991316003095704,120426.19991141053,0.0
31140.0,-1.1412052446010654,-8.001171554396077,118985.98903161923,0.0
31320.0,-1.1205100078072971,-8.011448203726614,117543.92835494844,0.0
31500.0,-1.0997609821094243,-8.022172565006322,116099.9372932473,0.0
31680.0,-1.0789583010331587,-8.033366534605316,114653.93131701834,0.0
31860.0,-1.0581022276260634,-8.045047199875164,113205.82282104081,0.0
32040.0,-1.0371931647052977,-8.057226759208143,111755.52200438334,0.0
32220.0,-1.0162316648258947,-8.069912454212202,110302.93776262514,0.0
32400.0,-0.9952184399320646,-8.083106514549982,108847.97859000614,0.0
32580.0,-0.9741543706545192,-8.09680611594672,107390.55348913572,0.0
32760.0,-0.9530405152174636,-8.111003351824968,105930.57288580723,0.0
32940.0,-0.9318781179198576,-8.125685218972446,104467.94954639219,0.0
33120.0,-0.9106686171565747,-8.140833617594796,103002.59949522513,0.0
33300.0,-0.8894136529464375,-8.156425366046834,101534.4429293367,0.0
33480.0,-0.8681150739355773,-8.17243223047446,100063.40512785129,0.0
33660.0,-0.8467749438462499,-8.188820969535623,98589.41735333488,0.0
33840.0,-0.8253955473430884,-8.20555339430237,97112.41774236046,0.0
34020.0,-0.8039793952908401,-8.22258644337809,95632.3521825524,0.0
34200.0,-0.782529229379802,-8.239872273194333,94149.17517337741,0.0
34380.0,-0.7610480260975291,-8.257358363381151,92662.85066796881,0.0
34560.0,-0.7395390000278759,-8.274987637033648,91173.35289330276,0.0
34740.0,-0.7180056064610194,-8.292698595626746,89680.66714608994,0.0
34920.0,-0.6964515433008528,-8.31042546825887,88184.79056180334,0.0
35100.0,-0.6748807522589055,-8.328098374836392,86685.73285433279,0.0
35280.0,-0.6532974193268474,-8.34564350274158,85183.5170238393,0.0
35460.0,-0.6317059745225472,-8.362983296461183,83678.18003047629,0.0
35640.0,-0.6101110909076232,-8.380036659588459,82169.77343175036,0.0
35820.0,-0.5885176828774039,-8.396719168550419,80658.36398141128,0.0
36000.0,-0.5669309037272015,-8.412943297354651,79144.03418788745,0.0
36180.0,-0.5453561425017517,-8.428618652595409,77626.88283042028,0.0
36360.0,-0.5237990201375929,-8.443652217909387,76107.02543119658,0.0
36540.0,-0.5022653849110358,-8.457948607025271,74584.59468193204,0.0
36720.0,-0.48076130720713395,-8.471410324511162,73059.74082352003,0.0
36900.0,-0.4592930736277839,-8.483938033287506,71532.63197752828,0.0
37080.0,-0.4378671804596558,-8.49543082794286,70003.45442849856,0.0
37260.0,-0.41649032652512696,-8.505786512864903,68472.41285618288,0.0
37440.0,-0.3951694054417011,-8.514901884179293,66939.7305170306,0.0
37620.0,-0.3739114973175842,-8.522673014475126,65405.649374425084,0.0
37800.0,-0.35272385991308924,-8.528995539287784,63870.430177353286,0.0
37980.0,-0.33161391929938167,-8.533764944307492,62334.35248737794,0.0
38160.0,-0.3105892600477307,-8.536876852285184,60797.71465396661,0.0
38340.0,-0.2896576149839091,-8.538227308615983,59260.83373841573,0.0
38520.0,-0.2688268545436422,-8.537713064595488,57724.04538678854,0.0
38700.0,-0.24810497576609322,-8.535231857363131,56187.70365246318,0.0
38880.0,-0.22750009096323853,-8.530682685572225,54652.18076906018,0.0
39060.0,-0.20702041610365754,-8.523966079855493,53117.86687468619,0.0
39240.0,-0.1866742589497327,-8.514984367189488,51585.16968859208,0.0
39420.0,-0.16647000698751757,-8.50364192829968,50054.51414149814,0.0
39600.0,-0.1464161151886124,-8.489845447290266,48526.34196098589,0.0
39780.0,-0.12652109364325193,-8.47350415272929,47001.111213494616,0.0
39960.0,-0.10679349510351725,-8.45453004946834,45479.295804590314,0.0
40140.0,-0.08724190247508667,-8.432838140528602,43961.38493929517,0.0
40320.0,-0.06787491629528507,-8.408346638439395,42447.88254437607,0.0
40500.0,-0.048701142234377326,-8.380977165471938,40939.30665459112,0.0
40680.0,-0.02972917865607036,-8.350654942268985,39436.188764982704,0.0
40860.0,-0.010967604272080026,-8.317308964430785,37939.073151385164,0.0
41040.0,0.007575034075629145,-8.280872166677394,36448.51616138323,0.0
41220.0,0.02589023347268022,-8.241281574268214,34965.08547801495,0.0
41400.0,0.04396954679942669,-8.198478441420386,33489.35935855928,0.0
41580.0,0.06180459437818153,-8.152408376526962,32021.925850784428,0.0
41760.0,0.07938707537297379,-8.103021454036453,30563.381989057867,0.0
41940.0,0.09670877891597895,-8.050272312912348,29114.332972733646,0.0
42120.0,0.11376159493654801,-7.994120241649583,27675.39132923672,0.0
42300.0,0.13053752467057436,-7.934529249878807,26247.176064258536,0.0
42480.0,0.14702869082978964,-7.871468126643656,24830.311801462678,0.0
42660.0,0.16322734741245054,-7.804910485487176,23425.427914074986,0.0
42840.0,0.17912588913875763,-7.734834796531582,22033.1576506993,0.0
43020.0,0.19471686049622808,-7.661224405782532,20654.137257658444,0.0
43200.0,0.20999296438211276,-7.584067541931727,19289.00510011073,0.0
43380.0,0.2249470703317926,-7.5033573109721585,17938.40078413574,0.0
43560.0,0.2395722223239077,-7.419091678977972,16602.964281919707,0.0
43740.0,0.2538616461547508,-7.331273443434393,15283.335062101516,0.0
43920.0,0.26780875637618545,-7.239910193534762,13980.151227265258,0.0
44100.0,0.28140716279303246,-7.145014259889186,12694.048660485205,0.0
44280.0,0.29465067651748134,-7.046602654113924,11425.6601827447,0.0
44460.0,0.3075333155796433,-6.944696998791708,10175.614722962191,0.0
44640.0,0.32004931009483795,-6.839323448311273,8944.536502266163,0.0
44820.0,0.3321931069896242,-6.7305126011096545,7733.044234066425,0.0
45000.0,0.3439593742899117,-6.6182994038518865,6541.750341373086,0.0
45180.0,0.35534300497574256,-6.50272304809235,5371.260192716462,0.0
45360.0,0.3663391204085037,-6.383826859967112,4222.171357922382,0.0
45540.0,0.37694307333741456,-6.26165818347031,3095.072884897727,0.0
45720.0,0.38715045049313607,-6.1362682578677115,1990.5445984815387,0.0
45900.0,0.3969570747772629,-6.007712089798711,909.1564223177706,0.0
46080.0,0.4063590070572912,-5.876048320613305,-148.53227539262411,0.0
46260.0,0.41535254757740586,-5.7413390894838,-1181.9733114997082,0.0
46440.0,0.42393423699608623,-5.603649892822554,-2190.630292207768,0.0
46620.0,0.4321008570621247,-5.463049440526118,-3173.979191502469,0.0
46800.0,0.43984943094114337,-5.319609509553117,-4131.50890322203,0.0
46980.0,0.4471772232051332,-5.173404795330032,-5062.721766381436,0.0
47160.0,0.45408173949788094,-5.024512761462847,-5967.134063444749,0.0
47340.0,0.46056072588943614,-4.873013488215456,-6844.2764913235305,0.0
47520.0,0.4666121679329848,-4.7189895201988215,-7693.694604959319,0.0
47700.0,0.47223428943763257,-4.562525713694318,-8514.949233424297,0.0
47880.0,0.47742555097069556,-4.403709084016836,-9307.616868547328,0.0
48060.0,0.48218464810311473,-4.242628653300896,-10071.290026141489,0.0
48240.0,0.48651050941158835,-4.079375299073637,-10805.577579974743,0.0
48420.0,0.4904022942509299,-3.914041603956212,-11510.10506868686,0.0
48600.0,0.49385939031002823,-3.7467217068138874,-12184.51497591336,0.0
48780.0,0.49688141096462507,-3.577511155653466,-12828.466983930984,0.0
48960.0,0.4994681924399019,-3.4065067625444563,-13441.638201188987,0.0
49140.0,0.5016197907956224,-3.233806460819237,-14023.72336413645,0.0
49320.0,0.5033364787462892,-3.0595091647854242,-14574.435013797825,0.0
49500.0,0.5046187423284682,-2.883714632162698,-15093.503647587111,0.0
49680.0,0.5054672774270825,-2.706523329435193,-15580.677846885446,0.0
49860.0,0.5058829861721243,-2.528036300290271,-16035.724380937696,0.0
50040.0,0.5058669732168418,-2.3483550372940742,-16458.42828765063,0.0
50220.0,0.5054205419080601,-2.1675813569354734,-16848.592931899017,0.0
50400.0,0.504545190358878,-1.9858172781502503,-17206.040041966062,0.0
50580.0,0.5032426074335546,-1.8031649044200482,-17530.60972476167,0.0
50760.0,0.5015146686539632,-1.619726309522398,-17822.1604604757,0.0
50940.0,0.4993634320365418,-1.4356034269917792,-18080.56907733422,0.0
51120.0,0.4967911338682312,-1.2508979433355274,-18305.730707134615,0.0
51300.0,0.4938001844294271,-1.0657111950328721,-18497.55872224053,0.0
51480.0,0.490393163671531,-0.8801440693314562,-18655.984654720192,0.0
51660.0,0.48657281685623116,-0.6942969088414528,-18780.958098311654,0.0
51840.0,0.4823420501631998,-0.5082694199149899,-18872.44659389635,0.0
