t(s),Tsurface(蚓),Flux(W),E(J),f_liq
0.0,6.0,48.00000000000005,0.0,1.0
180.0,5.110199299808046,44.10948314522889,7939.706966141201,1.0
360.0,4.765793910197238,42.80565286218307,15644.724481334153,1.0
540.0,4.562697205103932,42.166367430436004,23234.670618812634,1.0
720.0,4.41461061603027,41.78041847019882,30755.14594344842,1.0
900.0,4.28998272847332,41.49640211573569,38224.498324280845,1.0
1080.0,4.175882371257275,41.25169810180626,45649.80398260597,1.0
1260.0,4.066885079585923,41.01976641449768,53033.36193721555,1.0
1440.0,3.9607048857673774,40.7892881287586,60375.4338003921,1.0
1620.0,3.8563798532276863,40.55542895808221,67675.4110128469,1.0
1800.0,3.7535078807599955,40.316128042322966,74932.31406046504,1.0
1980.0,3.6519235770439917,40.07051509170028,82145.00677697109,1.0
2160.0,3.551561484496943,39.81823449722975,89312.28898647244,1.0
2340.0,3.4523981744716745,39.55915660532563,96432.93717543106,1.0
2520.0,3.354427736776004,39.293254310499236,103505.72295132092,1.0
2700.0,3.257651406612707,39.02055021909783,110529.42199075852,1.0
2880.0,3.1620731747973485,38.74109392267874,117502.81889684069,1.0
3060.0,3.0676979294599684,38.45495210897391,124424.710276456,1.0
3240.0,2.9745306686028163,38.16220414138011,131293.90702190442,1.0
3420.0,2.882576165714674,37.86293996499652,138109.2362156038,1.0
3600.0,2.791838827243664,37.55725900061146,144869.54283571386,1.0
3780.0,2.702322631539845,37.24526945696121,151573.69133796688,1.0
3960.0,2.614031102627589,36.927087819249664,158220.56714543182,1.0
4140.0,2.5269672991021963,36.60283841145556,164809.07805949383,1.0
4320.0,2.5261503956255007,36.76068699374031,171426.00171836707,1.0
4500.0,2.5224661105073594,36.894772587702576,178067.06078415352,1.0
4680.0,2.5154957460039657,37.00222488611555,184727.46126365432,1.0
4860.0,2.5053423571803006,37.08318431665978,191402.43444065307,1.0
5040.0,2.4922638583128838,37.138734083347515,198087.40657565562,0.9922638583128838
5220.0,2.4765577745996907,37.17024395866147,204778.05048821468,0.9765577745996907
5400.0,2.4585182243555104,37.179119924622356,211470.2920746467,0.9585182243555104
5580.0,2.4384201729919748,37.16670822598764,218160.29955532448,0.9384201729919748
5760.0,2.4165146856865407,37.13426249786721,224844.46680494057,0.9165146856865407
5940.0,2.3930285992847424,37.08293678428616,231519.39542611208,0.8930285992847424
6120.0,2.3681658827500818,37.01378887425047,238181.87742347716,0.8681658827500818
6300.0,2.342109552582187,36.92778740772072,244828.8791568669,0.8421095525821869
6480.0,2.3150236802752855,36.825820022308044,251457.52676088235,0.8150236802752855
6660.0,2.28705531084383,36.70870143124933,258065.09301850724,0.7870553108438298
6840.0,2.270672245291237,36.65294725091808,264662.6235236725,0.7706722452912369
7020.0,2.2553579921327933,36.59452149157925,271249.63739215676,0.7553579921327933
7200.0,2.241071341362428,36.5332277943366,277825.61839513737,0.7410713413624279
7380.0,2.227591643157525,36.4677551898452,284389.8143293095,0.7275916431575249
7560.0,2.2146750673531734,36.39663364484494,290941.2083853816,0.7146750673531734
7740.0,2.202297511864391,36.3197506671281,297478.76350546465,0.702297511864391
7920.0,2.1896182652666254,36.23188365051644,304000.50256255764,0.6896182652666254
8100.0,2.176893428182145,36.13464536018693,310504.7387273913,0.676893428182145
8280.0,2.1633855020738597,36.0234209871834,316988.9545050843,0.6633855020738597
8460.0,2.150584918909622,35.907615623799444,323452.3253173682,0.650584918909622
8640.0,2.138409823630555,35.786788017847094,329893.94716058066,0.6384098236305551
8820.0,2.1267924872127444,35.660585901518225,336312.85262285394,0.6267924872127444
9000.0,2.1156709044381814,35.52869419737216,342708.01757838094,0.6156709044381814
9180.0,2.104988576103913,35.39083450978666,349078.36779014254,0.6049885761039131
9360.0,2.09469522699322,35.24677047617179,355422.78647585347,0.59469522699322
9540.0,2.0847471183325403,35.09631048534643,361740.12236321584,0.5847471183325403
9720.0,2.0751068760545692,34.9393072222078,368029.19766321324,0.5751068760545692
9900.0,2.065743000385967,34.77565506594527,374288.81557508337,0.5657430003859671
10080.0,2.0566292181547525,34.60528636419746,380517.7671206389,0.5566292181547525
10260.0,2.047743789312246,34.42816730148947,386714.837234907,0.5477437893122459
10440.0,2.0390688341358714,34.244293799863236,392878.8101188824,0.5390688341358714
10620.0,2.0305897160164608,34.053687690288385,399008.4739031343,0.5305897160164608
10800.0,2.0222944947895436,33.85639326563783,405102.6246909491,0.5222944947895436
10980.0,2.0141734538046077,33.65247424920614,411160.0700558062,0.5141734538046077
11160.0,2.0062186974634706,33.44201116938782,417179.632066296,0.5062186974634706
11340.0,1.9984238127746565,33.225099108724365,423160.1499058664,0.4984238127746565
11520.0,1.9907835872356496,33.00184578577404,429100.48214730574,0.49078358723564963
11700.0,1.9832937752276152,32.772369925858236,434999.5087339602,0.4832937752276152
11880.0,1.9759509055685978,32.53679987838138,440856.13271206885,0.47595090556859776
12060.0,1.9687521236092511,32.29527244209095,446669.2817516452,0.4687521236092511
12240.0,1.961695062087716,32.04793186413717,452437.9094871899,0.46169506208771605
12420.0,1.954777735785859,31.79492898342691,458160.99670420674,0.4547777357858589
12600.0,1.9479984557951644,31.536420493165885,463837.5523929766,0.4479984557951644
12780.0,1.9413557598837807,31.272568301473406,469466.6146872418,0.44135575988378073
12960.0,1.9348483560499123,31.0035389724602,475047.2517022846,0.43484835604991234
13140.0,1.92847507685359,30.72950323318578,480578.5622842581,0.4284750768535901
13320.0,1.9222348425460665,30.45063553447936,486059.67668046436,0.42223484254606647
13500.0,1.9161266313728147,30.1671136557694,491489.75713850284,0.4161266313728147
13680.0,1.910149455721977,29.879118345868633,496867.9984407592,0.4101494557219769
13860.0,1.904302343034139,29.586832993155433,502193.6283795272,0.40430234303413903
14040.0,1.8985843205898214,29.290443319826117,507465.9081770959,0.3985843205898214
14220.0,1.8929944034553003,28.99013709590758,512684.1328543592,0.39299440345530035
14400.0,1.8875315850015193,28.686103869549765,517847.63155087817,0.3875315850015193
14580.0,1.8821948295203166,28.37853471080005,522955.7677988222,0.3821948295203166
14760.0,1.8769830665512235,28.067621966616002,528007.9397528131,0.3769830665512235
14940.0,1.8718951866046094,27.753559025324893,533003.5803773715,0.3718951866046094
15120.0,1.8669300380258018,27.436540089109698,537942.1575934113,0.3669300380258018
15300.0,1.8620864247926152,27.116759953396926,542823.1743850227,0.3620864247926152
15480.0,1.8573631050775437,26.794413792268692,547646.1688676311,0.35736310507754365
15660.0,1.8527587904373322,26.469696949214747,552410.7143184898,0.35275879043733216
15840.0,1.848272145518159,26.142804732703127,557116.4191703764,0.348272145518159
16020.0,1.8439017881853692,25.813932216174692,561762.9269692878,0.3439017881853692
16200.0,1.8396462900034445,25.483274042171487,566349.9162968787,0.3396462900034445
16380.0,1.8355041770055098,25.15102423039325,570877.1006583495,0.33550417700550983
16560.0,1.8314739307026577,24.817375989543333,575344.2283364673,0.33147393070265774
16740.0,1.8275539892923391,24.48252153287896,579751.0822123855,0.32755398929233914
16920.0,1.8237427490322484,24.14665189742453,584097.4795539218,0.3237427490322484
17100.0,1.8200385657520368,23.80995676684074,588383.2717719532,0.3200385657520368
17280.0,1.8164397564798977,23.47262429796878,592608.3441455876,0.31643975647989775
17460.0,1.8129446011649488,23.13484095109135,596772.6155167841,0.3129446011649488
17640.0,1.8095513444794287,22.796791323968257,600876.0379550984,0.30955134447942867
17820.0,1.806258197687281,22.458657989716396,604918.5963932474,0.3062581976872809
18000.0,1.8030633405677226,22.120621338614566,608900.308234198,0.30306334056772255
18180.0,1.7999649233840938,21.782859423921156,612821.2229305038,0.29996492338409375
18360.0,1.7969610688896114,21.44554781179556,616681.421536627,0.2969610688896114
18540.0,1.7940498743627544,21.108859435419802,620481.0162350025,0.2940498743627544
18720.0,1.791229413665926,20.772964453418176,624220.1498366179,0.2912294136659259
18900.0,1.7884977393217267,20.438030112672784,627898.9952568989,0.28849773932172673
19080.0,1.7858528846018156,20.104220615633817,631517.754967713,0.28585288460181557
19260.0,1.783292865623772,19.771696992222623,635076.660426313,0.2832928656237721
19440.0,1.780815683451824,19.44061697642261,638575.9714820691,0.28081568345182406
19620.0,1.778419326197591,19.11113488765418,642015.9757618469,0.2784193261975909
19800.0,1.776101771117288,18.783401517023453,645396.9880349111,0.27610177111728795
19980.0,1.7738609867020618,18.457564018535734,648719.3495582475,0.2738609867020618
20160.0,1.7716949347583049,18.133765805358752,651983.4274032121,0.27169493475830486
20340.0,1.7696015724749699,17.812146451218588,655189.6137644314,0.26960157247496985
20520.0,1.7675788544750204,17.492841597007644,658338.3252518928,0.2675788544750204
20700.0,1.7656247348483116,17.17598286267936,661430.0021671751,0.2656247348483116
20880.0,1.7637371691632393,16.861697764501205,664465.1077647853,0.2637371691632393
21060.0,1.761914116454634,16.550109637732938,667444.1274995772,0.2619141164546339
21240.0,1.760153541185434,16.241337564792225,670367.5682612398,0.2601535411854341
21420.0,1.7584534151797517,15.935496308965964,673235.9575968537,0.25845341517975173
21600.0,1.7568117195250128,15.632696253720077,676049.8429225234,0.2568117195250128
21780.0,1.7552264464409086,15.333043347656547,678809.7907251016,0.25522644644090864
21960.0,1.7536956011129765,15.03663905516033,681516.3857550304,0.2536956011129765
22140.0,1.7522172034886634,14.743580312774325,684170.2302113298,0.2522172034886634
22320.0,1.750789290033804,14.45395949133511,686771.9429197701,0.250789290033804
22500.0,1.7494099154474871,14.167864363896259,689322.1585052714,0.24940991544748714
22680.0,1.7480771543333429,13.885378079460754,691821.5265595744,0.24807715433334288
22860.0,1.7467891028253644,13.606579142538052,694270.7108052312,0.24678910282536437
23040.0,1.7455438801663934,13.331541398535283,696670.3882569675,0.2455438801663934
23220.0,1.7443396302375018,13.060334024986162,699021.2483814651,0.24433963023750183
23400.0,1.7431745230365308,12.793021528614752,701323.9922566158,0.24317452303653075
23580.0,1.7420467561041293,12.529663748225008,703579.3317312963,0.2420467561041293
23760.0,1.7409545558956938,12.270315863400226,705787.9885867083,0.2409545558956938
23940.0,1.7398961790976653,12.015028408990124,707950.6937003265,0.23989617909766525
24120.0,1.7388699138867292,11.76384729535658,710068.1862134907,0.23886991388672918
24300.0,1.7378740811305173,11.516813834341546,712141.2127036721,0.23787408113051733
24480.0,1.7369070355284826,11.273964770914453,714170.5263624367,0.23690703552848258
24660.0,1.7359671666917,11.035332320448763,716156.8861801175,0.23596716669170004
24840.0,1.735052900160423,10.800944211570124,718101.0561382001,0.2350529001604229
25020.0,1.7341626983582887,10.570823734511595,720003.8044104122,0.23416269835828873
25200.0,1.7332950614821696,10.344989794903466,721865.9025734948,0.2332950614821696
25380.0,1.7324485283267272,10.123456972918577,723688.1248286201,0.23244852832672724
25560.0,1.7316216770428283,9.906235587685321,725471.2472344035,0.23162167704282832
25740.0,1.7308131258290582,9.693331766874223,727216.0469524409,0.23081312582905822
25920.0,1.7300215335556626,9.484747521355354,728923.3015062849,0.23002153355566257
26100.0,1.7292456003203358,9.280480824816873,730593.7880547519,0.2292456003203358
26280.0,1.7284840679353728,9.080525698226985,732228.2826804328,0.2284840679353728
26460.0,1.7277357203457882,8.884872299014223,733827.5596942554,0.22773572034578815
26640.0,1.7269993839781088,8.693507014833129,735392.3909569253,0.22699938397810882
26820.0,1.7262739280196508,8.506412561775223,736923.5452180449,0.22627392801965085
27000.0,1.7255582646281755,8.323568086877131,738421.7874736828,0.22555826462817552
27180.0,1.7248513490719386,8.144949274771015,739887.8783431415,0.2248513490719386
27360.0,1.724152179800239,7.970528458314519,741322.5734656381,0.22415217980023905
27540.0,1.7234597984446842,7.800274733030629,742726.6229175836,0.22345979844468422
27720.0,1.7227732897514874,7.634154075180681,744100.770651116,0.22277328975148736
27900.0,1.722091781445227,7.472129463286983,745445.7539545076,0.222091781445227
28080.0,1.7214144440246026,7.314161002914481,746762.3029350323,0.22141444402460264
28260.0,1.7207404904908246,7.160206054514948,748051.140024845,0.22074049049082456
28440.0,1.7200691760093871,7.010219364130245,749312.9795103885,0.22006917600938714
28620.0,1.7193997975060906,6.864153196745836,750548.5270858028,0.21939979750609062
28800.0,1.7187316931982632,6.721957472079275,751758.479430777,0.21873169319826324
28980.0,1.718064242062275,6.583579902583519,752943.5238132421,0.21806424206227493
29160.0,1.7173968632385082,6.448966133439406,754104.3377172612,0.21739686323850815
29340.0,1.7167290153750845,6.31805988430666,755241.5884964364,0.2167290153750845
29520.0,1.7160601959117392,6.1908030925987845,756355.9330531041,0.2160601959117392
29700.0,1.715389940305334,6.067136058042463,757448.0175435517,0.2153899403053341
29880.0,1.714717821198625,5.946997588278819,758518.4771094419,0.21471782119862493
30060.0,1.714043447533976,5.830325145260234,759567.9356355887,0.21404344753397608
30240.0,1.7133664636138295,5.717054992193693,760597.0055341836,0.2133664636138295
30420.0,1.7126865481098288,5.607122340779131,761606.2875555238,0.2126865481098288
30600.0,1.7120034130225923,5.500461498489,762596.3706252518,0.2120034130225923
30780.0,1.7113168025942285,5.3970060156341955,763567.8317080659,0.21131680259422847
30960.0,1.7106264921757612,5.296688831960055,764521.2356978187,0.21062649217576124
31140.0,1.7099322870517415,5.199442422515592,765457.1353338715,0.2099322870517415
31320.0,1.7092340212243822,5.105198942539477,766376.0711435286,0.20923402122438217
31500.0,1.7085315561596435,5.013890371106315,767278.5714103277,0.20853155615964347
31680.0,1.7078247794977728,4.925448653278047,768165.1521679177,0.20782477949777278
31860.0,1.7071136037308687,4.839805840506912,769036.3172192089,0.20711360373086873
32040.0,1.706397964850105,4.756894229038362,769892.5581804358,0.2063979648501051
32220.0,1.7056778209653185,4.6766464960651035,770734.3545497275,0.2056778209653185
32400.0,1.7049531508997158,4.598995833386713,771562.1737997371,0.20495315089971577
32580.0,1.704223952762508,4.523876078333038,772376.4714938371,0.20422395276250804
32760.0,1.7034902425023275,4.451221841713823,773177.6914253456,0.2034902425023275
32940.0,1.702752052444327,4.380968632562151,773966.2657792068,0.20275205244432692
33120.0,1.702009429813892,4.31305297944461,774742.6153155068,0.20200942981389192
33300.0,1.7012624352499277,4.247412548117067,775507.1495741679,0.2012624352499277
33480.0,1.7005111413107097,4.183986255311705,776260.267100124,0.20051114131070968
33660.0,1.6997556309752966,4.122714378447701,777002.3556882446,0.19975563097529658
33840.0,1.6989959961435344,4.06353866106597,777733.7926472365,0.19899599614353436
34020.0,1.698232336137653,4.006402413796115,778454.9450817198,0.198232336137653
34200.0,1.6974647562085,3.9512506106726026,779166.1701916408,0.1974647562084999
34380.0,1.6966933660494008,3.8980299806260463,779867.8155881535,0.1966933660494008
34560.0,1.6959182783206679,3.846689093985236,780560.2196250709,0.19591827832066788
34740.0,1.6951396071877165,3.7971784438352856,781243.7117449613,0.1951396071877165
34920.0,1.6943574668757617,3.749450522087858,781918.6128389371,0.19435746687576172
35100.0,1.6935719702439904,3.703459890130012,782585.2356191605,0.19357197024399042
35280.0,1.6927832273821204,3.659163243929547,783243.8850030678,0.1927832273821204
35460.0,1.6919913442321424,3.6165194734859787,783894.8585082953,0.19199134423214237
35640.0,1.6911964212380635,3.575489716528251,784538.4466572703,0.19119642123806346
35820.0,1.690398552026341,3.536037406372227,785174.9333904173,0.19039855202634093
36000.0,1.6895978221196903,3.4981283138633743,785804.5964869127,0.18959782211969034
36180.0,1.6887943076868352,3.4617305833426077,786427.7079919144,0.18879430768683525
36360.0,1.6879880743307196,3.426814762585852,787044.5346491798,0.18798807433071962
36540.0,1.6871791759176051,3.3933538266809884,787655.3383379823,0.18717917591760513
36720.0,1.6863676534493888,3.361323195818534,788260.3765132297,0.18636765344938877
36900.0,1.6855535339813947,3.330700746985797,788859.9026476871,0.18555353398139474
37080.0,1.6847368295877776,3.3014668195670818,789454.1666752092,0.1847368295877776
37260.0,1.6839175363765857,3.273604214865891,790043.4154338851,0.1839175363765857
37440.0,1.6830956335564133,3.247098189578064,790627.8931080091,0.18309563355641334
37620.0,1.6822710825564744,3.2219364432578117,791207.8416677956,0.1822710825564744
37800.0,1.6814438262017863,3.1981090998317123,791783.5013057652,0.18144382620178634
37980.0,1.6806137879450644,3.175608683228447,792355.1108687464,0.18061378794506444
38160.0,1.6797808711567768,3.1544300872047515,792922.9082844433,0.17978087115677677
38340.0,1.678944958474699,3.1345705394605736,793487.1309815462,0.17894495847469893
38520.0,1.6781059112141603,3.1160295601486023,794048.016302373,0.1781059112141603
38700.0,1.677263568840069,3.098808914895392,794605.8019070541,0.177263568840069
38880.0,1.6764177485016338,3.082912562462875,795160.7261682975,0.17641774850163383
39060.0,1.6755682446305842,3.0683465971904655,795713.0285557917,0.17556824463058418
39240.0,1.6747148286035571,3.0551191863690046,796262.9500093381,0.17471482860355714
39420.0,1.673857248469159,3.0432405027082,796810.7332998256,0.17385724846915895
39600.0,1.6729952287400787,3.0327226520696327,797356.6233771981,0.17299522874007867
39780.0,1.6721284702505061,3.0235795966469454,797900.8677045946,0.17212847025050615
39960.0,1.6712566500789368,3.015827073784239,798443.7165778758,0.17125665007893676
40140.0,1.67037942153632,3.0094825106323735,798985.4234297896,0.1703794215363199
40320.0,1.6694964142193742,3.0045649348511967,799526.2451180628,0.16949641421937423
40500.0,1.6686072341287401,3.001094881573465,800066.442196746,0.16860723412874012
40680.0,1.6677114638515067,2.9990942968534013,800606.2791701796,0.1677114638515067
40860.0,1.6668086628075187,2.9985864378293945,801146.0247289889,0.16680866280751871
41040.0,1.6658983675587264,2.9995957698365077,801685.9519675594,0.16589836755872645
41220.0,1.6649800921807174,3.002147860709803,802226.3385824872,0.1649800921807174
41400.0,1.6640533286954347,3.006269272524395,802767.4670515415,0.16405332869543465
41580.0,1.663117547563957,3.011987451022434,803309.6247927255,0.16311754756395702
41760.0,1.662172198238107,3.019330612980682,803853.1043030621,0.16217219823810702
41940.0,1.661216709769507,3.0283276317755994,804398.2032767817,0.16121670976950697
42120.0,1.6602504914746226,3.039007921405016,804945.2247026346,0.16025049147462256
42300.0,1.6592729336541838,3.051401319227379,805494.4769400955,0.15927293365418382
42480.0,1.6582834083652986,3.0655379676806547,806046.273774278,0.15828340836529864
42660.0,1.6572812702444453,3.081448195243528,806600.9344494218,0.15728127024444527
42840.0,1.6562658573794475,3.0991623969014426,807158.783680864,0.15626585737944754
43020.0,1.6552364922284417,3.1187109143793754,807720.1516454524,0.1552364922284417
43200.0,1.6541924825837415,3.1401239164019596,808285.3739504047,0.15419248258374152
43380.0,1.653133122578446,3.163431279239755,808854.7915806678,0.15313312257844602
43560.0,1.6520576937335345,3.1886624677979976,809428.7508248715,0.1520576937335345
43740.0,1.6509654660431434,3.2158464175012624,810007.6031800217,0.15096546604314343
43920.0,1.6498556990956341,3.245011417223933,810591.705235122,0.14985569909563412
44100.0,1.6487276432280065,3.276184993512356,811181.4185339542,0.14872764322800647
44280.0,1.64758054071116,3.30939379634004,811777.1094172954,0.1475805407111599
44460.0,1.6464136269634577,3.344663486632247,812379.1488448892,0.14641362696345772
