t(s),Tsurface(蚓),Flux(W),E(J),f_liq
0.0,0.0,9.600000000000009,0.0,0.0
180.0,-0.46139287193175255,8.56624253622115,1541.923656519807,0.0
360.0,-0.6877308554834378,8.08603464665274,2997.4098929173006,0.0
540.0,-0.8423740939000859,7.771750992436894,4396.325071555942,0.0
720.0,-0.9639401107267982,7.5319181772224395,5752.070343455981,0.0
900.0,-1.0660657468215338,7.3344010268991955,7072.262528297836,0.0
1080.0,-1.155164186479696,7.16416977924305,8361.813088561585,0.0
1260.0,-1.2347926876010373,7.012933338885476,9624.14108956097,0.0
1440.0,-1.3071240681537049,6.875659995169912,10861.759888691555,0.0
1620.0,-1.3735736382193968,6.7490993829598205,12076.597777624323,0.0
1800.0,-1.4351104924769973,6.631049323182623,13270.186655797195,0.0
1980.0,-1.4924277494028673,6.519954590170577,14443.7784820279,0.0
2160.0,-1.546041537033312,6.414673225558312,15598.419662628396,0.0
2340.0,-1.596350888461362,6.314334897417852,16734.99994416361,0.0
2520.0,-1.6436749899641727,6.218252750434282,17854.28543924178,0.0
2700.0,-1.688276833848679,6.125867496208653,18956.941588559337,0.0
2880.0,-1.7303785184854434,6.036711394951562,20043.549639650617,0.0
3060.0,-1.770171334845174,5.950384697601706,21114.618885218923,0.0
3240.0,-1.8078225602453124,5.866539975617896,22170.596080830142,0.0
3420.0,-1.8434801507246144,5.784871484748558,23211.87294808488,0.0
3600.0,-1.8772760778456268,5.705107766055726,24238.79234597491,0.0
3780.0,-1.909328779863429,5.62700634636996,25251.653488321503,0.0
3960.0,-1.9397450250281452,5.550349814578368,26250.71645494561,0.0
4140.0,-1.968621376771148,5.4749428119011005,27236.206161087808,0.0
4320.0,-1.9960453825112758,5.400609640247434,28208.315896332348,0.0
4500.0,-2.0220965648688627,5.327192298162983,29167.210510001685,0.0
4680.0,-2.0468472668778994,5.254548820965063,30113.029297775396,0.0
4860.0,-2.0703633855064663,5.182551844424734,31045.88862977185,0.0
5040.0,-2.0927050167685373,5.111087338662578,31965.884350731114,0.0
5220.0,-2.1139270286311707,5.04005347641139,32873.093976485165,0.0
5400.0,-2.1340795733383535,4.9693596110365155,33767.57870647174,0.0
5580.0,-2.1532085477716048,4.898925346964547,34649.385268925354,0.0
5760.0,-2.1713560084710792,4.82867968989722,35518.54761310686,0.0
5940.0,-2.1885605465855424,4.758560267295888,36375.08846122012,0.0
6120.0,-2.2048576270753673,4.688512611697242,37219.020731325625,0.0
6300.0,-2.2202798958146115,4.618489500831979,38050.34884147538,0.0
6480.0,-2.234857457734038,4.548450349503194,38869.06990438596,0.0
6660.0,-2.2486181287585265,4.478360648888136,39675.17482118582,0.0
6840.0,-2.2615876639823562,4.40819144945302,40468.64928208737,0.0
7020.0,-2.2737899642704225,4.337918884076582,41249.47468122115,0.0
7200.0,-2.2852472632573892,4.267523728302417,42017.62895231559,0.0
7380.0,-2.295980296529722,4.196990994909509,42773.0873313993,0.0
7560.0,-2.3060084546111295,4.126309560219317,43515.823052238775,0.0
7740.0,-2.315349921225387,4.055471819758367,44245.80797979528,0.0
7920.0,-2.3240217981788582,3.9844733710736255,44963.013186588534,0.0
8100.0,-2.3320402180859356,3.913312721659204,45667.40947648719,0.0
8280.0,-2.3394204460524466,3.8419910200998353,46358.967860105164,0.0
8460.0,-2.3461769713335414,3.770511808671879,47037.659985666105,0.0
8640.0,-2.352323589892651,3.6988807957673595,47703.45852890423,0.0
8820.0,-2.3578734787059297,3.6271056466226534,48356.33754529631,0.0
9000.0,-2.3628392625815,3.5551957909408674,48996.272787665665,0.0
9180.0,-2.3672330741940644,3.483162246097384,49623.241991963194,0.0
9360.0,-2.371066607972671,3.411017454711379,50237.22513381124,0.0
9540.0,-2.374351168421893,3.3387751354535142,50838.20465819287,0.0
9720.0,-2.3770977134041615,3.2664501460409197,51426.16568448024,0.0
9900.0,-2.379316892862972,3.1940583574468087,52001.096188820666,0.0
10080.0,-2.3810190834227445,3.121616538422625,52562.98716573674,0.0
10260.0,-2.382214419261094,3.0491422494966205,53111.832770646135,0.0
10440.0,-2.382912819612615,2.976653745674362,53647.63044486752,0.0
10620.0,-2.38312401322989,2.904169887123899,54170.381024549824,0.0
10800.0,-2.3828575600970083,2.8317100571819527,54680.08883484257,0.0
10980.0,-2.382122870663026,2.75929408706701,55176.76177051463,0.0
11160.0,-2.3809292228375605,2.6869421867316645,55660.41136412633,0.0
11340.0,-2.379285776967608,2.6146748813297043,56131.052842765675,0.0
11520.0,-2.3772015889937026,2.542512952813269,56588.705174272065,0.0
11700.0,-2.3746856219644306,2.4704773862130085,57033.3911037904,0.0
11880.0,-2.3717467560709657,2.3985893201884236,57465.13718142432,0.0
12060.0,-2.368393797347487,2.326870001467944,57883.973781688546,0.0
12240.0,-2.3646354851690012,2.255340742828047,58289.935115397595,0.0
12420.0,-2.3604804986651144,2.1840228842883005,58683.05923456949,0.0
12600.0,-2.355937462156434,2.1129377572250303,59063.388030869995,0.0
12780.0,-2.351014949709609,2.0421066511298993,59430.96722807338,0.0
12960.0,-2.3457214888973232,1.971550782761846,59785.84636897051,0.0
13140.0,-2.3400655638407324,1.901291267461182,60128.07879711352,0.0
13320.0,-2.334055617603918,1.831349092413475,60457.72163374795,0.0
13500.0,-2.3277000540027313,1.7617450916684443,60774.83575024827,0.0
13680.0,-2.321007238883915,1.6924999227351456,61079.4857363406,0.0
13860.0,-2.3139855009245003,1.6236340445897934,61371.73986436676,0.0
14040.0,-2.306643131996224,1.555167696946394,61651.67004981711,0.0
14220.0,-2.2989883871349375,1.4871208806530904,61919.35180833467,0.0
14400.0,-2.2910294841506755,1.4195133390892292,62174.86420937073,0.0
14580.0,-2.2827746029102176,1.3523645404488744,62418.289826651526,0.0
14760.0,-2.2742318843205185,1.2856936608068914,62649.714685596766,0.0
14940.0,-2.2654094290382814,1.2195195678730586,62869.22820781392,0.0
15120.0,-2.2563152959281787,1.1538608053484987,63076.923152776646,0.0
15300.0,-2.24695750028974,1.0887355778068268,63272.89555678188,0.0
15480.0,-2.2373440118707664,1.024161736030009,63457.24466926728,0.0
15660.0,-2.227482752683115,0.9601567627360019,63630.07288655976,0.0
15840.0,-2.2173815946350306,0.8967377586417871,63791.48568311529,0.0
16020.0,-2.2070483569926336,0.8339214288116451,63941.591540301386,0.0
16200.0,-2.196490803681862,0.7717240692462561,64080.501872765715,0.0
16380.0,-2.1857166404409902,0.7101615536736133,64208.330952426964,0.0
16560.0,-2.174733511832842,0.6492493205079533,64325.1958301184,0.0
16740.0,-2.1635489981249645,0.5890023599476056,64431.21625490897,0.0
16920.0,-2.1521706120452535,0.5294352011874215,64526.51459112271,0.0
17100.0,-2.1406057954199875,0.4705618997255919,64611.21573307332,0.0
17280.0,-2.1288619157006297,0.4123960247490756,64685.44701752815,0.0
17460.0,-2.1169462623854445,0.35495064658564834,64749.33813391357,0.0
17640.0,-2.104866043341612,0.29823832421452906,64803.02103227218,0.0
17820.0,-2.0926283810333457,0.2422710928312324,64846.62982898181,0.0
18000.0,-2.080240308661357,0.18706045146584696,64880.30071024566,0.0
18180.0,-2.067708766218952,0.1326173506575039,64904.17183336401,0.0
18360.0,-2.0550405964700795,0.07895218019113713,64918.38322579841,0.0
18540.0,-2.0422425408546863,0.026074756905952276,64923.07668204148,0.0
18720.0,-2.0293212353268943,-0.026005687411609305,64918.39565830739,0.0
18900.0,-2.0162832061316958,-0.07728051803455922,64904.48516506117,0.0
19080.0,-2.0031348655261105,-0.1277417091825918,64881.4916574083,0.0
19260.0,-1.9898825074510327,-0.1773818557676841,64849.56292337012,0.0
19440.0,-1.976532303160335,-0.22619418497279156,64808.84797007502,0.0
19620.0,-1.9630902968141888,-0.2741725676353679,64759.496907900655,0.0
19800.0,-1.9495624010439692,-0.3213115294044499,64701.66083260786,0.0
19980.0,-1.9359543924965594,-0.3676062616370248,64635.491705513195,0.0
20160.0,-1.922271907366384,-0.4130526319965884,64561.14223175381,0.0
20340.0,-1.908520436924007,-0.45764719471389137,64478.76573670531,0.0
20520.0,-1.8947053230506672,-0.501387200467051,64388.51604062124,0.0
20700.0,-1.88083175378872,-0.5442706058355175,64290.547331570844,0.0
20880.0,-1.8669047589185284,-0.5862960822796426,64185.014036760505,0.0
21060.0,-1.8529292055729725,-0.6274630245950885,64072.07069233339,0.0
21240.0,-1.8389097939013554,-0.6677715587887262,63951.87181175142,0.0
21420.0,-1.8248510527951318,-0.7072225493203869,63824.57175287375,0.0
21600.0,-1.8107573356885376,-0.7458176056524896,63690.3245838563,0.0
21780.0,-1.7966328164478162,-0.7835590880474839,63549.28394800775,0.0
21960.0,-1.782481485363422,-0.8204501125510838,63401.60292774856,0.0
22140.0,-1.7683071452601715,-0.856494555097483,63247.43390783101,0.0
22320.0,-1.7541134077410059,-0.891697054671143,63086.9284379902,0.0
22500.0,-1.7399036895805615,-0.9260630154584394,62920.23709520768,0.0
22680.0,-1.7256812092854177,-0.9595986079212638,62747.50934578185,0.0
22860.0,-1.7114489838383937,-0.9923107687238895,62568.89340741155,0.0
23040.0,-1.6972098256448283,-1.0242071994438358,62384.53611151166,0.0
23220.0,-1.6829663396992736,-1.0552963639972563,62194.582765992156,0.0
23400.0,-1.6687209209914624,-1.0855874847094327,61999.177018744456,0.0
23580.0,-1.6544757521708329,-1.1150905369615274,61798.46072209138,0.0
23760.0,-1.6402328014892078,-1.1438162423455338,61592.57379846919,0.0
23940.0,-1.6259938210415328,-1.1717760602607576,61381.65410762225,0.0
24120.0,-1.611760345324753,-1.1989821778868248,61165.83731560262,0.0
24300.0,-1.5975336901350496,-1.2254474984705137,60945.25676587793,0.0
24480.0,-1.5833149518237017,-1.2511856278663456,60720.04335286199,0.0
24660.0,-1.5691050069317727,-1.2762108592741797,60490.32539819264,0.0
24840.0,-1.5549045122236833,-1.3005381561207208,60256.228530090906,0.0
25020.0,-1.5407139051394687,-1.3241831330362763,60017.87556614438,0.0
25200.0,-1.5265334046851406,-1.3471620348828865,59775.386399865456,0.0
25380.0,-1.5123630127801084,-1.369491713795465,59528.877891382275,0.0
25560.0,-1.4982025160799624,-1.3911896042035683,59278.46376262563,0.0
25740.0,-1.4840514882922125,-1.4122736958081505,59024.25449738016,0.0
25920.0,-1.4699092930016737,-1.4327625044947545,58766.357246571104,0.0
26100.0,-1.4557750870211636,-1.4526750411724847,58504.87573916006,0.0
26280.0,-1.4416478242820367,-1.4720307785364337,58239.9101990235,0.0
26460.0,-1.4275262602777299,-1.4908496157602327,57971.557268186654,0.0
26640.0,-1.4134089570720691,-1.5091518411348017,57699.90993678239,0.0
26820.0,-1.3992942888824476,-1.526958092679402,57425.0574801001,0.0
27000.0,-1.38518044824623,-1.544289316761604,57147.08540308301,0.0
27180.0,-1.3710654527768356,-1.5611667247736072,56866.07539262376,0.0
27360.0,-1.3569471525138737,-1.5776117479237406,56582.105277997485,0.0
27540.0,-1.3428232378695226,-1.5936459902135882,56295.24899975904,0.0
27720.0,-1.3286912481709678,-1.6092911796830722,56005.576587416086,0.0
27900.0,-1.3145485807962975,-1.62456911801817,55713.15414617281,0.0
28080.0,-1.3003925008985704,-1.6395016286279032,55418.043853019786,0.0
28260.0,-1.2862201517101435,-1.6541105033100598,55120.303962423975,0.0
28440.0,-1.272028565416449,-1.6684174476370222,54819.988821849314,0.0
28620.0,-1.257814674585552,-1.6824440252057482,54517.148897312276,0.0
28800.0,-1.243575324136789,-1.6962116009076382,54211.8308091489,0.0
28980.0,-1.2293072838287513,-1.7097412833861907,53904.07737813939,0.0
29160.0,-1.2150072612437652,-1.7230538668612847,53593.92768210435,0.0
29340.0,-1.2006719152428842,-1.7361697725102998,53281.4171230525,0.0
29520.0,-1.1862978698622733,-1.7491089896060645,52966.577504923414,0.0
29700.0,-1.171881728618722,-1.7618910166215893,52649.43712193153,0.0
29880.0,-1.1574200891889368,-1.774534802520018,52330.020857477924,0.0
30060.0,-1.1429095584241986,-1.7870586884561488,52008.35029355582,0.0
30240.0,-1.1283467676590309,-1.7994803501226473,51684.443830533746,0.0
30420.0,-1.1137283882696334,-1.8118167409796568,51358.31681715741,0.0
30600.0,-1.0990511474351232,-1.8240840366110007,51029.98169056742,0.0
30780.0,-1.0843118440520294,-1.8362975804532087,50699.448126085845,0.0
30960.0,-1.069507364750075,-1.8484718311453165,50366.72319647969,0.0
31140.0,-1.0546346999550857,-1.8606203117475848,50031.811540365125,0.0
31320.0,-1.039690959942875,-1.87275556107599,49694.71553937145,0.0
31500.0,-1.0246733908262189,-1.884889087396425,49355.435503640096,0.0
31680.0,-1.0095793904155688,-1.8970313247179043,49013.96986519087,0.0
31860.0,-0.9944065238929863,-1.9091915919180729,48670.31537864562,0.0
32040.0,-0.9791525392378934,-1.9213780549261696,48324.4673287589,0.0
32220.0,-0.963815382342723,-1.9335976921792735,47976.41974416663,0.0
32400.0,-0.9483932117563272,-1.9458562635563124,47626.165616726496,0.0
32580.0,-0.9328844129931817,-1.9581582829815385,47273.69712578982,0.0
32760.0,-0.9172876123469176,-1.9705069948747205,46919.00586671237,0.0
32940.0,-0.9016016901476342,-1.9829043546094933,46562.08308288266,0.0
33120.0,-0.8858257934036885,-1.9953510131237857,46202.91990052038,0.0
33300.0,-0.8699593477703135,-2.007846305807786,45841.507565474974,0.0
33480.0,-0.8540020687894438,-2.020388245774771,45477.83768123551,0.0
33660.0,-0.8379539723475056,-2.032973521599417,45111.90244734762,0.0
33840.0,-0.8218153843006935,-2.0455974995859667,44743.694897422145,0.0
34020.0,-0.8055869492203546,-2.0582542306061726,44373.209135913035,0.0
34200.0,-0.7892696382145453,-2.0709364615233876,44000.44057283882,0.0
34380.0,-0.7728647557855739,-2.0836356511953946,43625.38615562365,0.0
34560.0,-0.7563739456874068,-2.09634199102451,43248.04459723924,0.0
34740.0,-0.7397991957511288,-2.1090444299992033,42868.41659983939,0.0
34920.0,-0.7231428416512207,-2.121730704147439,42486.50507309285,0.0
35100.0,-0.706407569590193,-2.13438737029811,42102.31534643919,0.0
35280.0,-0.6895964178840892,-2.1469998440236195,41715.85537451493,0.0
35460.0,-0.6727127774364665,-2.1595524416140313,41327.13593502441,0.0
35640.0,-0.6557603910936989,-2.172028425911354,40936.17081836036,0.0
35820.0,-0.6387433518797365,-2.1844100558118864,40542.97700831422,0.0
36000.0,-0.6216661001137931,-2.1966786392249475,40147.57485325373,0.0
36180.0,-0.604533419419762,-2.20881458925816,39749.98822718726,0.0
36360.0,-0.5873504316414596,-2.2207974833828805,39350.244680178344,0.0
36540.0,-0.5701225906829963,-2.2326061253183123,38948.375577621046,0.0
36720.0,-0.5528556752986764,-2.244218609359668,38544.41622793631,0.0
36900.0,-0.5355557808617669,-2.2556123868644513,38138.40599830071,0.0
37080.0,-0.518229310146215,-2.2667643346014645,37730.38841807245,0.0
37260.0,-0.5008829631599317,-2.2776508246598977,37320.41126963367,0.0
37440.0,-0.4835237260725105,-2.28824779561048,36908.52666642378,0.0
37620.0,-0.46615885928424594,-2.2985308246074814,36494.791117994435,0.0
37800.0,-0.4487958846869735,-2.308475200119316,36079.265581972955,0.0
37980.0,-0.4314425721705909,-2.318055994976382,35662.015502877206,0.0
38160.0,-0.4141069254320948,-2.3272481394277733,35243.11083778021,0.0
38340.0,-0.396797167146567,-2.33602649390357,34822.626068877566,0.0
38520.0,-0.37952172356175506,-2.3443659211861916,34400.64020306405,0.0
38700.0,-0.3622892085797081,-2.352241357703156,33977.236758677485,0.0
38880.0,-0.3451084073903398,-2.359627883663861,33552.50373961799,0.0
39060.0,-0.3279882597227847,-2.3665007917752,33126.53359709845,0.0
39240.0,-0.3109378427810168,-2.3728356542841533,32699.423179327307,0.0
39420.0,-0.29396635393038134,-2.3786083881104525,32271.273669467424,0.0
39600.0,-0.2770830932014948,-2.383795317848329,31842.190512254725,0.0
39780.0,-0.26029744567737045,-2.3883732364332855,31412.283329696733,0.0
39960.0,-0.24361886382867076,-2.3923194632877887,30981.665826304932,0.0
40140.0,-0.22705684986067437,-2.395611899778233,30550.45568434485,0.0
40320.0,-0.2106209381338898,-2.398229081834452,30118.77444961465,0.0
40500.0,-0.19432067771829106,-2.40015022960266,29686.747408286174,0.0
40680.0,-0.17816561513889329,-2.4013552940218945,29254.50345536223,0.0
40860.0,-0.16216527736786823,-2.401825000233941,28822.174955320123,0.0
41040.0,-0.1463291551156437,-2.401540887755925,28389.897595524057,0.0
41220.0,-0.13066668647046667,-2.4004853473638557,27957.810232998563,0.0
41400.0,-0.11518724093275402,-2.3986416546543876,27526.054735160775,0.0
41580.0,-0.09990010388726263,-2.3959940002697824,27094.775815112214,0.0
41760.0,-0.08481446155267557,-2.3925275167890008,26664.120862090193,0.0
41940.0,-0.06993938644468638,-2.388228302304243,26234.23976767543,0.0
42120.0,-0.05528382338507314,-2.383083440718172,25805.28474834616,0.0
42300.0,-0.040856576085628496,-2.377081018812035,25377.410164959994,0.0
42480.0,-0.026666294332174295,-2.370210140148604,24950.772339733245,0.0
42660.0,-0.012721461790263372,-2.362460935886756,24525.529371273627,0.0
42840.0,0.0009696155494126279,-2.3538245725961424,24101.84094820632,0.0
43020.0,0.014398820271417392,-2.344293257170829,23679.868161915572,0.0
43200.0,0.027558233770716083,-2.333860238950283,23259.77331890452,0.0
43380.0,0.04044014581486448,-2.3225198091640884,22841.719753254984,0.0
43560.0,0.053037063428753396,-2.3102672978238328,22425.871639646695,0.0
43740.0,0.06534171910050833,-2.297099068191466,22012.39380737223,0.0
43920.0,0.07734707831008023,-2.283012508958043,21601.451555759784,0.0
44100.0,0.08904634638484281,-2.268006024270431,21193.210471391107,0.0
44280.0,0.10043297468911648,-2.25207902174605,20787.83624747682,0.0
44460.0,0.11150066615697078,-2.2352318986172666,20385.49450572571,0.0
44640.0,0.12224338017989854,-2.2174660261475894,19986.350621019144,0.0
44820.0,0.13265533686301467,-2.1987837324614348,19590.569549176085,0.0
45000.0,0.14273102066529691,-2.1791882839281853,19198.315658069012,0.0
45180.0,0.1524651834410607,-2.1586838652390883,18809.752562325975,0.0
45360.0,0.16185284690134447,-2.137275558313052,18425.042961829626,0.0
45540.0,0.17088930451517853,-2.114969320164008,18044.348484200105,0.0
45720.0,0.17957012287181862,-2.0917719598585602,17667.829531425563,0.0
45900.0,0.18789114252595993,-2.0676911146884356,17295.645130781646,0.0
46080.0,0.1958484783487011,-2.042735225677179,16927.952790159754,0.0
46260.0,0.20343851940761695,-2.0169135125355955,16564.908357903347,0.0
46440.0,0.21065792839972938,-1.9902359481747083,16206.665887231899,0.0
46620.0,0.21750364066143874,-1.9627132328795065,15853.377505313587,0.0
46800.0,0.22397286277961495,-1.9343567682405567,15505.193287030286,0.0
46980.0,0.23006307082804528,-1.9051786309347578,15162.26113346203,0.0
47160.0,0.2357720082533086,-1.8751915464402331,14824.726655102788,0.0
47340.0,0.24109768343390633,-1.8444088627641828,14492.733059805236,0.0
47520.0,0.24603836693613665,-1.8128445242565747,14166.421045439052,0.0
47700.0,0.2505925884897478,-1.7805130455760725,13845.928697235358,0.0
47880.0,0.25475913370589054,-1.7474294858691435,13531.391389778913,0.0
48060.0,0.25853704055927207,-1.7136094232168944,13222.941693599872,0.0
48240.0,0.26192559565575285,-1.6790689293988093,12920.709286308087,0.0
48420.0,0.26492433030588974,-1.643824545016893,12624.820868205046,0.0
48600.0,0.2675330164241522,-1.607893255018427,12335.400082301729,0.0
48780.0,0.26975166227271746,-1.5712924646504007,12052.567438664657,0.0
48960.0,0.2715805080678943,-1.5340399758738004,11776.440243007373,0.0
49140.0,0.2730200214663469,-1.4961539642612864,11507.132529440341,0.0
49320.0,0.2740708929473857,-1.4576529563974718,11244.754997288797,0.0
49500.0,0.2747340311066896,-1.4185558077966913,10989.414951885394,0.0
49680.0,0.2750105578758942,-1.3788816813495008,10741.216249242483,0.0
49860.0,0.27490180368156936,-1.338650026305377,10500.259244507515,0.0
50040.0,0.2744093025561941,-1.297880557795706,10266.640744104288,0.0
50220.0,0.27353478721282476,-1.2565932368982073,10040.453961462612,0.0
50400.0,0.2722801840942669,-1.2148082512408729,9821.788476239255,0.0
50580.0,0.27064760840667806,-1.1725459961410474,9610.730196933866,0.0
50760.0,0.268639359146676,-1.1298270562727912,9407.361326804763,0.0
50940.0,0.2662579141301896,-1.086672187853611,9211.760332991113,0.0
51120.0,0.26350592503048326,-1.0431023013396221,9024.00191874998,0.0
51300.0,0.2603862124319989,-0.9991384446165155,8844.156998719007,0.0
51480.0,0.256901760905911,-0.9548017866722375,8672.292677118005,0.0
51660.0,0.25305571411256067,-0.9101136017358267,8508.472228805556,0.0
