t(s),Tsurface(蚓),Flux(W),E(J),f_liq
0.0,0.0,9.600000000000009,0.0,0.0
180.0,-0.36430954296400053,8.801275601970932,1584.2296083547678,0.0
360.0,-0.5372047397706927,8.453599666927616,3105.8775484017387,0.0
540.0,-0.6518147031547207,8.241054424210013,4589.267344759541,0.0
720.0,-0.7365876864810563,8.09657583503346,6046.650995065564,0.0
900.0,-0.8028587032861133,7.993582261910745,7485.495802209498,0.0
1080.0,-0.8569657988709182,7.917164713697265,8910.585450675006,0.0
1260.0,-0.9029084926868614,7.857840279209672,10324.996700932747,0.0
1440.0,-0.9433044076543358,7.8093410689821425,11730.678093349532,0.0
1620.0,-0.9798842394432179,7.767477911977469,13128.824117505475,0.0
1800.0,-1.0137948754253607,7.729442408660235,14520.123751064319,0.0
1980.0,-1.0457961626797916,7.6933505775529945,15904.926855023858,0.0
2160.0,-1.0763909179749522,7.657938729464579,17283.355826327483,0.0
2340.0,-1.1059112556856812,7.622359706847974,18655.380573560116,0.0
2520.0,-1.134575976384497,7.5860461987151835,20020.86888932885,0.0
2700.0,-1.1625287183381467,7.548619048156356,21379.620317996993,0.0
2880.0,-1.1898633126176055,7.50982576132727,22731.3889550359,0.0
3060.0,-1.2166406270817491,7.469499285926977,24075.89882650276,0.0
3240.0,-1.2428997513890767,7.427530387518404,25412.85429625607,0.0
3420.0,-1.2686654209496449,7.383849143279195,26741.947142046327,0.0
3600.0,-1.2939529422675762,7.338412545674276,28062.861400267695,0.0
3780.0,-1.3187714590698383,7.291196198272296,29375.27671595671,0.0
3960.0,-1.343126117084562,7.242188750678261,30678.870691078795,0.0
4140.0,-1.3670194980613921,7.191388165802036,31973.320560923163,0.0
4320.0,-1.3904525691126017,7.138799212092275,33258.304419099775,0.0
4500.0,-1.4134253107034696,7.084431774145723,34533.502138446005,0.0
4680.0,-1.4359371316503613,7.028299709669311,35798.59608618648,0.0
4860.0,-1.4579871429853155,6.970420070914811,37053.27169895115,0.0
5040.0,-1.4795743383212474,6.9108125690533955,38297.21796138076,0.0
5220.0,-1.5006977122811942,6.849499200338575,39530.1278174417,0.0
5400.0,-1.5213563378983401,6.786503979908705,40751.69853382527,0.0
5580.0,-1.5415494168300843,6.721852747128709,41961.632028308435,0.0
5760.0,-1.5612763115495665,6.655573018425678,43159.63517162506,0.0
5940.0,-1.5805365655787973,6.587693871620396,44345.42006851673,0.0
6120.0,-1.5993299157758543,6.518245851125424,45518.704321719306,0.0
6300.0,-1.6176562993309738,6.447260886959601,46679.21128137203,0.0
6480.0,-1.635515857228306,6.374772222912957,47826.670281496365,0.0
6660.0,-1.652908935336294,6.300814350783224,48960.816864637345,0.0
6840.0,-1.6698360838970976,6.225422948659799,50081.39299539611,0.0
7020.0,-1.6862980559260734,6.148634821932971,51188.14726334405,0.0
7200.0,-1.7022958048609358,6.070487846169504,52280.83507565456,0.0
7380.0,-1.7178304816869536,5.991020911305087,53359.21883968948,0.0
7560.0,-1.732903431689759,5.910273866805059,54423.06813571439,0.0
7740.0,-1.7475161909378167,5.828287467580579,55472.1598798789,0.0
7920.0,-1.76167048256396,5.745103320532841,56506.27847757481,0.0
8100.0,-1.7753682128936634,5.6607638316559825,57525.21596727288,0.0
8280.0,-1.78861146745338,5.575312153664803,58528.77215493254,0.0
8460.0,-1.8014025068826691,5.488792134137108,59516.75473907722,0.0
8640.0,-1.8137437627674582,5.401248264173855,60488.97942662852,0.0
8820.0,-1.82563783340742,5.312725627589101,61445.27003959456,0.0
9000.0,-1.8370874795275505,5.22326985064581,62385.458612710805,0.0
9180.0,-1.848095619941971,5.132927052355653,63309.38548213482,0.0
9360.0,-1.858665327176556,5.041743795360974,64216.899365299796,0.0
9540.0,-1.8687998230559666,4.949767037417024,65107.85743203486,0.0
9720.0,-1.8785024742598813,4.857044083490427,65982.12536706314,0.0
9900.0,-1.8877767878526548,4.763622538488866,66839.57742399114,0.0
10080.0,-1.8966264067901428,4.669550260634596,67680.09647090537,0.0
10260.0,-1.9050551054070588,4.574875315492943,68503.57402769409,0.0
10440.0,-1.9130667848879068,4.479645930664394,69309.91029521369,0.0
10620.0,-1.9206654687242182,4.383910451147614,70099.01417642026,0.0
10800.0,-1.9278552981606096,4.287717295378428,70870.80328958837,0.0
10980.0,-1.9346405276319136,4.1911149119482936,71625.20397373906,0.0
11160.0,-1.9410255201934385,4.094151737004207,72362.15128639982,0.0
11340.0,-1.9470147429462135,3.9968761523303855,73081.58899381928,0.0
11520.0,-1.952612762458918,3.8993364441107987,73783.46955375923,0.0
11700.0,-1.9578242401879933,3.8015807623704045,74467.75409098591,0.0
11880.0,-1.9626539278973216,3.7036570810917264,75134.41236558242,0.0
12060.0,-1.9671066630787053,3.6056131590026594,75783.4227342029,0.0
12240.0,-1.9711873643742421,3.5074965010303587,76414.77210438836,0.0
12420.0,-1.97490102700161,3.409354320415449,77028.45588206315,0.0
12600.0,-1.9782527181831482,3.3112335014802494,77624.47791232959,0.0
12780.0,-1.9812475725795526,3.2131805630442285,78202.85041367754,0.0
12960.0,-1.9838907877289138,3.115241622479514,78763.59390572386,0.0
13140.0,-1.9861876194917847,3.0174623603992363,79306.73713059572,0.0
13320.0,-1.988143377502889,2.919887985971237,79832.31696807055,0.0
13500.0,-1.989763420630064,2.822563202849871,80340.37834458353,0.0
13680.0,-1.9910531524410031,2.7255321757185613,80830.97413621287,0.0
13860.0,-1.9920180166783326,2.6288384974363868,81304.16506575143,0.0
14040.0,-1.9926634927435807,2.532525156781869,81760.01959397216,0.0
14220.0,-1.9929950911905827,2.4366345067881316,82198.61380519402,0.0
14400.0,-1.99301834922892,2.3412082336637416,82620.0312872535,0.0
14580.0,-1.9927388262379728,2.246287326294574,83024.36300598652,0.0
14760.0,-1.9921620992922786,2.151912046322568,83411.70717432459,0.0
14940.0,-1.991293758698883,2.0581218987983165,83782.16911610829,0.0
15120.0,-1.9901394035474838,1.964955603405285,84135.86112472124,0.0
15300.0,-1.9887046372742132,1.8724510662546041,84472.90231664707,0.0
15480.0,-1.9869950632400275,1.7806453522504837,84793.41848005216,0.0
15660.0,-1.9850162803247382,1.68957465802755,85097.54191849713,0.0
15840.0,-1.982773878537872,1.5992742854627044,85385.41128988042,0.0
16020.0,-1.9802734346476298,1.5097786157655477,85657.17144071822,0.0
16200.0,-1.9775205078293672,1.4211210841528223,85912.97323586572,0.0
16380.0,-1.9745206353351696,1.3333341551138493,86152.97338378621,0.0
16560.0,-1.9712793281862198,1.2464492982756168,86377.33425747583,0.0
16740.0,-1.9678020668898468,1.1604969648777042,86586.22371115381,0.0
16920.0,-1.9640942971832929,1.075506564869042,86779.81489283024,0.0
17100.0,-1.960161425806425,0.9915064446401647,86958.28605286547,0.0
17280.0,-1.9560088163058018,0.908523865406523,87121.82034863865,0.0
17460.0,-1.951641784872688,0.8265849822601252,87270.60564544547,0.0
17640.0,-1.9470655962178367,0.745714823908736,87404.83431374904,0.0
17820.0,-1.9422854594860433,0.6659372731236941,87524.70302291132,0.0
18000.0,-1.937306524213683,0.5872750479193334,87630.4125315368,0.0
18180.0,-1.9321338763326936,0.5097496834888933,87722.1674745648,0.0
18360.0,-1.9267725342246458,0.4333815149237204,87800.17614725107,0.0
18540.0,-1.9212274448288142,0.3581896607444131,87864.65028618506,0.0
18720.0,-1.9155034798083388,0.28419200727455507,87915.80484749448,0.0
18900.0,-1.9096054317788511,0.21140519388940004,87953.85778239457,0.0
19080.0,-1.9035380106041233,0.13984459917381972,87979.02981024585,0.0
19260.0,-1.8973058397635678,0.06952432802549609,87991.54418929043,0.0
19440.0,-1.8909134527966103,0.00045719974113800105,87991.62648524383,0.0
19620.0,-1.8843652898292156,-0.06734526287490696,87979.50433792635,0.0
19800.0,-1.877665694188062,-0.13387284333870333,87955.40722612539,0.0
19980.0,-1.870818909108053,-0.19911664020896175,87919.56623088778,0.0
20160.0,-1.863829074539112,-0.26306907465969714,87872.21379744903,0.0
20340.0,-1.8567002240583808,-0.32572389685824266,87813.58349601454,0.0
20520.0,-1.8494362818941428,-0.3870761911024286,87743.90978161611,0.0
20700.0,-1.842041060067986,-0.4471223796698033,87663.42775327554,0.0
20880.0,-1.8345182556618929,-0.5058602253308944,87572.37291271597,0.0
21060.0,-1.826871448217096,-0.563288832477914,87470.98092286995,0.0
21240.0,-1.8191040972716968,-0.6194086468198092,87359.48736644238,0.0
21420.0,-1.811219540044158,-0.6742214535943375,87238.1275047954,0.0
21600.0,-1.803220989269903,-0.7277303742477667,87107.1360374308,0.0
21780.0,-1.7951115311983337,-0.7799398615329937,86966.74686235486,0.0
21960.0,-1.7868941237576548,-0.8308556929773102,86817.19283761895,0.0
22140.0,-1.7785715948949272,-0.8804849626717076,86658.70554433804,0.0
22320.0,-1.7701466410987934,-0.9288360713345517,86491.51505149782,0.0
22500.0,-1.7616218261123051,-0.9759187146037418,86315.84968286914,0.0
22680.0,-1.7529995798432585,-1.0217438695128933,86131.93578635681,0.0
22860.0,-1.7442821974793423,-1.0663237791090012,85939.9975061172,0.0
23040.0,-1.7354718388153334,-1.1096719351711501,85740.2565577864,0.0
23220.0,-1.7265705277994154,-1.151803058992254,85532.9320071678,0.0
23400.0,-1.717580152305543,-1.1927330801887022,85318.24005273383,0.0
23580.0,-1.7085024641385365,-1.2324791135058348,85096.39381230278,0.0
23760.0,-1.6993390792783818,-1.2710594335906695,84867.60311425646,0.0
23940.0,-1.6900914783698908,-1.3084934477072,84632.07429366917,0.0
24120.0,-1.6807610074635688,-1.3448016663736182,84390.00999372192,0.0
24300.0,-1.6713488790131692,-1.380005671905556,84141.60897277892,0.0
24480.0,-1.6618561731349857,-1.4141280848540487,83887.0659175052,0.0
24660.0,-1.6522838391335009,-1.4471925283324067,83626.57126240537,0.0
24840.0,-1.642632697297512,-1.4792235902315805,83360.31101616369,0.0
25020.0,-1.6329034409703027,-1.5102467833295146,83088.46659516437,0.0
25200.0,-1.6230966388968577,-1.5402885033063196,82811.21466456923,0.0
25380.0,-1.6132127378505094,-1.5693759846833997,82528.72698732621,0.0
25560.0,-1.603252065540702,-1.5975372547116946,82241.1702814781,0.0
25740.0,-1.5932148338029033,-1.6248010852411403,81948.7060861347,0.0
25920.0,-1.58310114207091,-1.6511969426108342,81651.49063646475,0.0
26100.0,-1.5729109811310287,-1.6767549356069322,81349.6747480555,0.0
26280.0,-1.5626442371567988,-1.701505761543086,81043.40371097776,0.0
26460.0,-1.5523006960220656,-1.725480650526111,80732.81719388305,0.0
26640.0,-1.541880047889326,-1.7487113079777126,80418.04915844706,0.0
26820.0,-1.5313818920693776,-1.7712298554911212,80099.22778445865,0.0
27000.0,-1.5208057421473375,-1.7930687701099521,79776.47540583886,0.0
27180.0,-1.5101510313691682,-1.8142608221245722,79449.90845785644,0.0
27360.0,-1.4994171182818496,-1.8348390114897546,79119.63743578827,0.0
27540.0,-1.488603292619366,-1.854836502975388,78785.7668652527,0.0
27720.0,-1.4777087814256524,-1.8742865601701884,78448.39528442208,0.0
27900.0,-1.4667327554046765,-1.8932224784662617,78107.61523829815,0.0
28080.0,-1.4556743354867914,-1.91167751715996,77763.51328520937,0.0
28260.0,-1.44453259959952,-1.9296848308121697,77416.17001566317,0.0
28440.0,-1.4333065896299348,-1.947277400017998,77065.66008365992,0.0
28620.0,-1.4219953185648175,-1.9644879617429905,76712.05225054618,0.0
28800.0,-1.4105977777938445,-1.9813489393890378,76355.40944145616,0.0
28980.0,-1.3991129445601056,-1.9978923727593718,75995.78881435946,0.0
29160.0,-1.3875397895413812,-2.014149848097251,75633.24184170195,0.0
29340.0,-1.3758772845447358,-2.0301524283779964,75267.81440459391,0.0
29520.0,-1.3641244102961998,-2.045930584038119,74899.54689946705,0.0
29700.0,-1.3522801643065194,-2.061514124329097,74528.47435708782,0.0
29880.0,-1.3403435687932812,-2.076932129486144,74154.62657378032,0.0
30060.0,-1.3283136786390506,-2.0922128839046223,73778.02825467748,0.0
30240.0,-1.3161895893646052,-2.107383810518143,73398.69916878422,0.0
30420.0,-1.3039704450958243,-2.1224714065730184,73016.65431560107,0.0
30600.0,-1.2916554465023662,-2.137501180993703,72631.90410302221,0.0
30780.0,-1.2792438586859376,-2.1524975935325656,72244.45453618636,0.0
30960.0,-1.2667350189956588,-2.167483995895779,71854.30741692512,0.0
31140.0,-1.2541283447478826,-2.182482575034025,71461.46055341899,0.0
31320.0,-1.2414233408277209,-2.1975142987832545,71065.90797963801,0.0
31500.0,-1.22861960714955,-2.2125988640361007,70667.64018411151,0.0
31680.0,-1.2157168459538616,-2.2277546476191405,70266.64434754007,0.0
31860.0,-1.2027148689180436,-2.2429986600448166,69862.90458873201,0.0
32040.0,-1.1896136040589496,-2.258346502299741,69456.40221831805,0.0
32220.0,-1.1764131024055409,-2.273812325822915,69047.11599966993,0.0
32400.0,-1.1631135444203589,-2.289408795818765,68635.02241642255,0.0
32580.0,-1.1497152461492082,-2.305147058040025,68220.09594597535,0.0
32760.0,-1.1362186650790758,-2.3210367091653072,67802.30933832559,0.0
32940.0,-1.1226244056851589,-2.337085770885052,67381.63389956628,0.0
33120.0,-1.108933224648686,-2.353300667797763,66958.03977936269,0.0
33300.0,-1.0951460357282226,-2.3696862092062423,66531.49626170557,0.0
33480.0,-1.0812639142681784,-2.386245574890551,66101.97205822528,0.0
33660.0,-1.067288101329363,-2.402980304921222,65669.43560333946,0.0
33840.0,-1.0532200074276366,-2.419890293562369,65233.855350498234,0.0
34020.0,-1.03906121586796,-2.4369737873003947,64795.200068784165,0.0
34200.0,-1.0248134856624949,-2.454227387019694,64353.43913912062,0.0
34380.0,-1.010478754022753,-2.47164605433203,63908.542849340854,0.0
34560.0,-0.9960591384172635,-2.4892231220520125,63460.48268737149,0.0
34740.0,-0.9815569381876693,-2.5069503087961347,63009.231631788185,0.0
34920.0,-0.9669746357176723,-2.5248177376684127,62554.76443900787,0.0
35100.0,-0.9523148971507787,-2.542813958981298,62097.05792639124,0.0
35280.0,-0.937580572654341,-2.56092597694606,61636.09125054094,0.0
35460.0,-0.9227746962289359,-2.5791392802532593,61171.84618009536,0.0
35640.0,-0.9079004850636787,-2.597437876449933,60704.30736233437,0.0
35820.0,-0.8929613384396207,-2.6158043300073683,60233.46258293305,0.0
36000.0,-0.877960836184892,-2.6342198039605447,59759.30301822015,0.0
36180.0,-0.862902736686772,-2.652664104988106,59281.82347932229,0.0
36360.0,-0.8477909744673346,-2.671115731790744,58801.02264759995,0.0
36540.0,-0.8326296573307459,-2.689551926614706,58316.9033008093,0.0
36720.0,-0.8174230630916859,-2.7079487297573483,57829.47252945298,0.0
36900.0,-0.8021756358956992,-2.7262810368825754,57338.741942814115,0.0
37080.0,-0.7868919821435426,-2.7445226589654785,56844.72786420033,0.0
37260.0,-0.7715768660328263,-2.76264638467796,56347.451514958295,0.0
37440.0,-0.7562352047313596,-2.780624045020833,55846.93918685454,0.0
37620.0,-0.7408720631976998,-2.798426580001778,55343.22240245422,0.0
37800.0,-0.7254926486653606,-2.816024107154254,54836.338063166455,0.0
37980.0,-0.710102304808056,-2.833385991688223,54326.32858466257,0.0
38160.0,-0.6947065056041523,-2.850480918061054,53813.242019411584,0.0
38340.0,-0.6793108489192294,-2.867276962754891,53297.132166115705,0.0
38520.0,-0.6639210498262876,-2.8837416680457792,52778.058665867466,0.0
38700.0,-0.6485429336836664,-2.89984211654997,52256.08708488847,0.0
38880.0,-0.6331824289911943,-2.9155450063334603,51731.28898374845,0.0
39060.0,-0.6178455600454388,-2.9308167263728166,51203.74197300134,0.0
39240.0,-0.6025384394151851,-2.9456234321576398,50673.52975521297,0.0
39420.0,-0.5872672602584382,-2.9599311212287556,50140.742153391795,0.0
39600.0,-0.5720382885023273,-2.9737057084499976,49605.4751258708,0.0
39780.0,-0.5568578549072779,-2.986913100816879,49067.83076772376,0.0
39960.0,-0.5417323470367177,-2.99951927161053,48527.91729883387,0.0
40140.0,-0.5266682011534148,-3.0114903337118015,47985.849038765744,0.0
40320.0,-0.5116718940632835,-3.022792611897418,47441.74636862421,0.0
40500.0,-0.49674993492716213,-3.0333927139469057,46895.73568011377,0.0
40680.0,-0.48190885706066927,-3.0432576003975584,46347.94931204221,0.0
40860.0,-0.46715520974177627,-3.0523546527923964,45798.52547453958,0.0
41040.0,-0.45249555004519465,-3.060651740275053,45247.60816129007,0.0
41220.0,-0.4379364347221062,-3.0681172843943765,44695.34705009908,0.0
41400.0,-0.4234844121431054,-3.0747203219908608,44141.89739214072,0.0
41580.0,-0.40914601432155423,-3.080430566046252,43587.4198902524,0.0
41760.0,-0.3949277490338095,-3.0852184643875153,43032.08056666265,0.0
41940.0,-0.38083609205202246,-3.0890552561457407,42476.050620556416,0.0
42120.0,-0.36687747950441685,-3.0919130258806238,41919.506275897904,0.0
42300.0,-0.3530583003771239,-3.0937647552905765,41362.6286199456,0.0
42480.0,-0.3393848891708128,-3.0945843724383733,40805.6034329067,0.0
42660.0,-0.32586351872449204,-3.0943467984317676,40248.62100918898,0.0
42840.0,-0.3125003932179892,-3.09302799150804,39691.875970717534,0.0
43020.0,-0.29930164136373294,-3.0906049884804845,39135.56707279105,0.0
43200.0,-0.2862733097975857,-3.087055943514203,38579.89700295849,0.0
43380.0,-0.27342135667759193,-3.082360164207249,38025.07217340118,0.0
43560.0,-0.2607516454986349,-3.0764981449615267,37471.30250730811,0.0
43740.0,-0.24826993913013157,-3.069451597636586,36918.80121973352,0.0
43920.0,-0.23598189408304385,-3.0612034794867293,36367.78459342591,0.0
44100.0,-0.2238930550116503,-3.05173801838994,35818.47175011572,0.0
44280.0,-0.21200884945470622,-3.0410407353841267,35271.08441774658,0.0
44460.0,-0.20033458281983116,-3.0290984645330035,34725.84669413064,0.0
44640.0,-0.18887543361418768,-3.0158993701503114,34182.984807503584,0.0
44820.0,-0.17763644892378136,-3.0014329614173447,33642.72687444846,0.0
45000.0,-0.16662254014299252,-2.985690104434055,33105.30265565033,0.0
45180.0,-0.15583847895527186,-2.968663031749471,32570.94330993543,0.0
45360.0,-0.14528889356527994,-2.950345349421823,32039.8811470395,0.0
45540.0,-0.1349782651821302,-2.930732041663253,31512.349379540115,0.0
45720.0,-0.12491092475281655,-2.9098194731278038,30988.581874377112,0.0
45900.0,-0.11509104994434755,-2.8876053889052073,30468.812904374176,0.0
46080.0,-0.1055226623726042,-2.8640889122858355,29953.276900162724,0.0
46260.0,-0.09620962507545115,-2.8392705403653333,29442.208202896963,0.0
46440.0,-0.08715564022718765,-2.81315213755943,28935.840818136265,0.0
46620.0,-0.07836424709101754,-2.7857369271018695,28434.40817125793,0.0
46800.0,-0.06983882020583711,-2.757029480599828,27938.14286474996,0.0
46980.0,-0.061582567803304455,-2.7270357057224346,27447.27643771992,0.0
47160.0,-0.053598530450839295,-2.6957628320994687,26962.039127942015,0.0
47340.0,-0.045889579915935653,-2.6632193955072805,26482.659636750705,0.0
47520.0,-0.03845841824691764,-2.629415220420083,26009.36489707509,0.0
47700.0,-0.03130757706506591,-2.594361401004377,25542.3798448943,0.0
47880.0,-0.024439417062851604,-2.5580702806343947,25081.92719438011,0.0
48060.0,-0.01785612770287023,-2.5205554300057567,24628.227216979074,0.0
48240.0,-0.011559727111933782,-2.481831623924292,24181.4975246727,0.0
48420.0,-0.005552062164687082,-2.441914816845683,23741.952857640477,0.0
48600.0,0.00016519124896428568,-2.4008221172408613,23309.80487653712,0.0
48780.0,0.005590527778374596,-2.3585717608606047,22885.26195958221,0.0
48960.0,0.010722611994417526,-2.3151830829716835,22468.52900464731,0.0
49140.0,0.015560277605280321,-2.270676489634897,22059.80723651303,0.0
49320.0,0.020102526511576124,-2.225073428094147,21659.294019456083,0.0
49500.0,0.024348527706527904,-2.178396356343497,21267.182675314252,0.0
49680.0,0.028297616026927902,-2.130668711937462,20883.66230716551,0.0
49860.0,0.031949290760514185,-2.0819148801077265,20508.917628746116,0.0
50040.0,0.03530321411532745,-2.032160161247313,20143.1287997216,0.0
50220.0,0.03835920955652243,-1.9814307378212859,19786.471266913766,0.0
50400.0,0.04111726001600211,-1.9297536407606048,19439.115611576857,0.0
50580.0,0.04357750598013489,-1.8771567153938302,19101.22740280597,0.0
50760.0,0.0457402434606883,-1.8236685869687888,18772.96705715159,0.0
50940.0,0.04760592185398609,-1.7693186258143219,18454.48970450501,0.0
51120.0,0.049175141693158106,-1.7141369121898364,18145.945060310838,0.0
51300.0,0.050448652298206664,-1.6581542008679926,17847.4773041546,0.0
51480.0,0.05142734932847033,-1.6014018854938783,17559.2249647657,0.0
51660.0,0.05211227224190958,-1.5439119627615088,17281.320811468628,0.0
51840.0,0.05250460166548938,-1.4857169964463959,17013.891752108277,0.0
