t(s),Tsurface(蚓),Flux(W),E(J),f_liq
0.0,2.0,14.39999999999998,0.0,1.0
180.0,1.5588321197268222,13.457089176343258,2422.2760517417864,1.0
360.0,1.3390409326984647,13.035145369985896,4768.602218339248,1.0
540.0,1.180921541119026,12.754657273213722,7064.440527517718,1.0
720.0,1.0512771825732632,12.536957734597811,9321.092919745324,1.0
900.0,0.9385822220381647,12.354883405055999,11544.971932655404,1.0
1080.0,0.8375028505411737,12.195948109644888,13740.242592391483,1.0
1260.0,0.7451452265875095,12.053436353925175,15909.861136098014,1.0
1440.0,0.6597512100416993,11.923309754612717,18056.056891928303,1.0
1620.0,0.5801466054846303,11.8028975143808,20180.578444516847,1.0
1800.0,0.5054824644855378,11.690282352735704,22284.829268009275,1.0
1980.0,0.5058046536832457,11.769735289386068,24403.381620098768,1.0
2160.0,0.5058871662152189,11.846566785794423,26535.763641541766,1.0
2340.0,0.5053925292729222,11.919780195331416,28681.32407670142,1.0
2520.0,0.5042361622920373,11.989033528200812,30839.350111777567,1.0
2700.0,0.5024281983947096,12.05423679042349,33009.11273405379,1.0
2880.0,0.50001517368386,12.115402530630195,35189.88518956723,1.0
3060.0,0.4970549044511528,12.172580515906493,37380.94968243039,0.9970549044511527
3240.0,0.4936051912088322,12.225827647105543,39581.59865890939,0.9936051912088322
3420.0,0.48971901179549693,12.275194610658293,41791.13368882788,0.9897190117954969
3600.0,0.48544289133507557,12.320720879761671,44008.86344718498,0.9854428913350756
3780.0,0.4808168044839462,12.362433858630602,46234.10154173849,0.9808168044839463
3960.0,0.4758747614251552,12.400349965631985,48466.16453555225,0.9758747614251553
4140.0,0.4706456401775101,12.434476494117662,50704.37030449343,0.9706456401775101
4320.0,0.4651540474279836,12.464813654396801,52948.03676228486,0.9651540474279836
4500.0,0.45942110796827534,12.491356508673478,55196.480933846084,0.9594211079682753
4680.0,0.4534651449810407,12.514096677248801,57449.018335750865,0.9534651449810407
4860.0,0.4473022448960975,12.533023781401223,59704.962616403085,0.9473022448960975
5040.0,0.4409467152585493,12.548126631330357,61963.62541004255,0.9409467152585493
5220.0,0.43441144983593627,12.559394186387879,64224.31636359237,0.9344114498359363
5400.0,0.42770821640330203,12.566816320886272,66486.3433013519,0.927708216403302
5580.0,0.4208478816847395,12.570384428433384,68749.0124984699,0.9208478816847395
5760.0,0.413840586087252,12.57009189450744,71011.62903948125,0.913840586087252
5940.0,0.40669587880301306,12.565934462730251,73273.4972427727,0.9066958788030131
6120.0,0.39942282189957284,12.557910515974863,75533.92113564818,0.8994228218995728
6300.0,0.3920300702980821,12.546021289495703,77792.20496775741,0.8920300702980821
6480.0,0.38452593309430816,12.530271029862105,80047.65375313259,0.8845259330943082
6660.0,0.37691842049604035,12.510667110639082,82299.57383304762,0.8769184204960403
6840.0,0.3692152797031633,12.487220113444849,84547.27345346769,0.8692152797031634
7020.0,0.36142402230684034,12.459943881160763,86790.06335207663,0.8614240223068403
7200.0,0.3535519451962617,12.42885554859686,89027.25735082406,0.8535519451962617
7380.0,0.3455596990332964,12.393831425766168,91258.14700746197,0.8455596990332964
7560.0,0.33741962790341684,12.354786292448795,93482.00854010276,0.8374196279034168
7740.0,0.329144623274908,12.31176421488665,95698.12609878236,0.829144623274908
7920.0,0.3207737446543273,12.264895437512171,97905.80727753455,0.8207737446543273
8100.0,0.31582353084961445,12.22523141712063,100106.34893261627,0.8158235308496145
8280.0,0.3109654939705887,12.18239602517025,102299.18021714692,0.8109654939705887
8460.0,0.3062147869300927,12.136455646080806,104483.74223344146,0.8062147869300926
8640.0,0.3015795410950108,12.087457803211276,106659.4846380195,0.8015795410950108
8820.0,0.2970646108376945,12.035442689613504,108825.86432214992,0.7970646108376944
9000.0,0.29267292109760257,11.980447271963456,110982.34483110334,0.7926729210976026
9180.0,0.28840606406933844,11.922507071912054,113128.39610404751,0.7884060640693384
9360.0,0.2842646267804856,11.861657119260816,115263.49438551445,0.7842646267804856
9540.0,0.28025545993392903,11.797955039493628,117387.1262926233,0.7802554599339291
9720.0,0.2763767645739903,11.7314335363611,119498.7843291683,0.7763767645739903
9900.0,0.2726232608147431,11.662116676701022,121597.96533097448,0.7726232608147431
10080.0,0.2689897383569937,11.590031147637204,123684.17093754918,0.7689897383569937
10260.0,0.2654716909667528,11.515208256099914,125756.90842364717,0.7654716909667528
10440.0,0.2620652857731223,11.437683802454035,127815.6915080889,0.7620652857731223
10620.0,0.2587672476947589,11.357497673960843,129860.04108940186,0.7587672476947589
10800.0,0.2555747515168222,11.274693454346206,131889.48591118417,0.7555747515168222
10980.0,0.25219009569715145,11.188373408811458,133903.39312477023,0.7521900956971515
11160.0,0.24895199429650977,11.099678752914556,135901.33530029486,0.7489519942965097
11340.0,0.2458545994305595,11.008650140456528,137882.89232557704,0.7458545994305595
11520.0,0.24289278266271258,10.915332421223463,139847.65216139727,0.7428927826627125
11700.0,0.24006200446022638,10.819774168038654,141795.21151164424,0.7400620044602264
11880.0,0.2373582105319386,10.722027283957445,143725.17642275657,0.7373582105319386
12060.0,0.23477774882481658,10.622146670685295,145637.1628234799,0.7347777488248166
12240.0,0.23231730250013097,10.520189944015973,147530.7970134028,0.7323173025001309
12420.0,0.22996974259659786,10.416204179228261,149405.71376566388,0.7299697425965979
12600.0,0.22773805240714298,10.310270117191738,151261.5623867584,0.727738052407143
12780.0,0.2256194559785152,10.202451558952715,153098.0036673699,0.7256194559785152
12960.0,0.22361132096078867,10.092814095498516,154914.7102045596,0.7236113209607886
13140.0,0.22171114115107488,9.981424969872466,156711.36669913665,0.7217111411510748
13320.0,0.21991652406576195,9.868352953446271,158487.67023075698,0.7199165240657619
13500.0,0.21822518008754443,9.753668225549122,160243.33051135583,0.7182251800875444
13680.0,0.21663491243235106,9.637442254260094,161978.07011712264,0.716634912432351
13860.0,0.21514360776976277,9.519747678038689,163691.6246991696,0.7151436077697628
14040.0,0.2137492274648287,9.400658188288377,165383.7431730615,0.7137492274648287
14220.0,0.21244979943411918,9.280248413018525,167054.1878874048,0.7124497994341192
14400.0,0.21124341060833765,9.158593801760878,168702.73477172176,0.7112434106083376
14580.0,0.21015224735586518,9.035844628554349,170329.18680486156,0.7101522473558652
14760.0,0.20914311955037357,8.911980490031342,171933.3432930672,0.7091431195503736
14940.0,0.20821536635736979,8.787082256590878,173515.01809925356,0.7082153663573698
15120.0,0.20736821846830047,8.66123070542656,175074.03962623034,0.7073682184683004
15300.0,0.20660081214835552,8.534506473875927,176610.250791528,0.7066008121483556
15480.0,0.20591220109834762,8.40699000612676,178123.5089926308,0.7059122010983476
15660.0,0.20530136663028142,8.278761494962486,179613.68606172406,0.7053013666302814
15840.0,0.20476722644414394,8.149900819568723,181080.66820924642,0.7047672264441439
16020.0,0.2043086422216295,8.020487480198774,182524.3559556822,0.7043086422216295
16200.0,0.20392442621435433,7.890600530375651,183944.66405114983,0.7039244262143544
16380.0,0.20361334697704397,7.760318507222109,185341.5213824498,0.703613346977044
16560.0,0.20337413437431828,7.629719360439738,186714.87086732895,0.7033741343743183
16740.0,0.20320548397121727,7.498880380397703,188064.66933580054,0.7032054839712173
16920.0,0.20310606090177624,7.3678781257399555,189390.88739843373,0.7031060609017763
17100.0,0.2030745032963329,7.236788350873676,190693.509301591,0.7030745032963329
17280.0,0.20310942533651005,7.105685933662471,191972.53276965025,0.70310942533651
17460.0,0.20320941999670808,6.9746448036131,193227.9688343006,0.703209419996708
17640.0,0.20337306152223214,6.843737870813343,194459.84165104703,0.7033730615222321
17820.0,0.20359890768668235,6.713036955853556,195668.18830310067,0.7035989076866823
18000.0,0.2038855018647796,6.582612720939022,196853.0585928697,0.7038855018647796
18180.0,0.2042313749512493,6.452534602381847,198014.51482129842,0.7042313749512493
18360.0,0.2046350471516107,6.322870744640873,199152.6315553338,0.7046350471516107
18540.0,0.20509502966661539,6.193687936063973,200267.4953838253,0.7050950296666154
18720.0,0.20560982628855498,6.065051546471305,201359.20466219014,0.705609826288555
18900.0,0.20617793492463343,5.937025466706618,202427.86924619734,0.7061779349246334
19080.0,0.20679784906000467,5.809672050271521,203473.6102152462,0.7067978490600046
19260.0,0.20746805917085542,5.683052057148521,204496.55958553296,0.7074680591708554
19440.0,0.2081870540960084,5.5572245999081265,205496.86001351642,0.7081870540960085
19620.0,0.20895332237389713,5.432247092188563,206474.66449011036,0.7089533223738971
19800.0,0.20976535355037604,5.308175199627961,207430.1360260434,0.7097653535503761
19980.0,0.21062163946164345,5.185062793322545,208363.44732884143,0.7106216394616435
20160.0,0.21152067549555428,5.062961905877838,209274.78047189943,0.7115206754955543
20340.0,0.2124609618337394,4.941922690114055,210164.32655611995,0.7124609618337394
20520.0,0.2134410046762305,4.821993380481094,211032.28536460653,0.7134410046762305
20700.0,0.214459317449678,4.703220257233773,211878.8650109086,0.714459317449678
20880.0,0.21551442199973453,4.5856476134125685,212704.28158132287,0.7155144219997345
21060.0,0.21660484976775204,4.469317724670667,213508.7587717636,0.7166048497677521
21240.0,0.2177291429515775,4.354270821983653,214292.52751972064,0.7177291429515775
21420.0,0.21888585564994384,4.240545067273602,215055.82563182988,0.7188858556499438
21600.0,0.2200735549897026,4.128176531975283,215798.89740758543,0.7200735549897026
21780.0,0.22129082223495575,4.017199178567944,216521.99325972766,0.7212908222349558
21960.0,0.22253625387698228,3.9076448450921175,217225.36933184424,0.7225362538769823
22140.0,0.223808462703734,3.7995432326669487,217909.28711372428,0.723808462703734
22320.0,0.2251060788475802,3.692921896019462,218574.0130550078,0.7251060788475802
22500.0,0.22642775080991123,3.5878062370333086,219219.8181776738,0.7264277508099113
22680.0,0.22777214646116437,3.484219501320723,219846.9776879115,0.7277721464611644
22860.0,0.22913795401480383,3.382182777817487,220455.77058791867,0.7291379540148039
23040.0,0.2305238829737765,3.2817150013965937,221046.47928817006,0.7305238829737765
23220.0,0.23192866504796214,3.1828329584928476,221619.38922069877,0.7319286650479622
23400.0,0.23335105504114917,3.0855512957264195,222174.78845392953,0.7333510550411492
23580.0,0.23478983170609138,2.989882531509445,222712.96730960123,0.7347898317060914
23760.0,0.236243798566228,2.8958370706162704,223234.21798231217,0.736243798566228
23940.0,0.23771178470269144,2.8034232216934973,223738.834162217,0.7377117847026915
24120.0,0.23919264550526814,2.7126472176824326,224227.11066139984,0.7391926455052682
24300.0,0.24068526338603105,2.623513239122477,224699.3430444419,0.740685263386031
24480.0,0.24218854845441554,2.536023440300139,225155.82726369592,0.7421885484544155
24660.0,0.24370143915257103,2.4501779782043114,225596.85929977268,0.743701439152571
24840.0,0.2452229028498824,2.3659750442445535,226022.7348077367,0.7452229028498825
25020.0,0.24675193639562262,2.2834108986853217,226433.74876950006,0.7467519363956227
25200.0,0.24828756662876622,2.2024799077449284,226830.19515289416,0.7482875666287663
25380.0,0.24982885084406456,2.1231745833043507,227212.36657788893,0.7498288508440646
25560.0,0.25137487721355667,2.045485625166888,227580.55399041896,0.7513748772135567
25740.0,0.2529247651627672,1.9694019658060185,227935.04634426406,0.7529247651627672
25920.0,0.2544776657009149,1.8949108175347749,228276.13029142033,0.7544776657009149
26100.0,0.2560327617045406,1.8219977220263213,228604.08988138507,0.7560327617045406
26280.0,0.25758926815403416,1.7506466021115294,228919.20626976513,0.7575892681540342
26460.0,0.25914643232262846,1.68083981577573,229221.75743660476,0.7591464323226285
26640.0,0.2607035339175044,1.612558212273141,229512.0179148139,0.7607035339175043
26820.0,0.2622598851727355,1.545781190273881,229790.25852906323,0.7622598851727356
27000.0,0.26381483089388247,1.4804867579550036,230056.74614549513,0.7638148308938825
27180.0,0.2653677484541312,1.4166515949434824,230311.74343258495,0.7653677484541312
27360.0,0.26691804774195066,1.3542511160158957,230555.5086334678,0.7669180477419506
27540.0,0.26846517106033274,1.2932595364561104,230788.29535002992,0.7684651710603327
27720.0,0.27000859297775637,1.2336499389693603,231010.35233904442,0.7700085929777564
27900.0,0.2715478201311054,1.1753943420478694,231221.92332061304,0.7715478201311055
28080.0,0.27308239098085113,1.118463769680519,231423.24679915555,0.7730823909808511
28260.0,0.27461187551889465,1.0628283222960806,231614.55589716884,0.7746118755188947
28440.0,0.27613587492954633,1.008457248827057,231796.07820195772,0.7761358749295464
28620.0,0.2776540212042029,0.9553190197786751,231968.0356255179,0.7776540212042029
28800.0,0.2791659767103641,0.9033814011852112,232130.64427773122,0.779165976710364
28980.0,0.2806714337157115,0.8526115293337696,232284.1143530113,0.7806714337157115
29160.0,0.2821701138680541,0.8029759861336048,232428.65003051536,0.7821701138680541
29340.0,0.2836617676320197,0.7544408750072923,232564.44938801668,0.7836617676320197
29520.0,0.2851461736834571,0.7069718971785166,232691.70432950882,0.7851461736834571
29700.0,0.2866231382625813,0.6605344282297502,232810.6005265902,0.7866231382625812
29880.0,0.28809249448697744,0.6150935948019901,232921.31737365454,0.7880924944869774
30060.0,0.2895541016256488,0.5706143513076887,233024.0279568899,0.7895541016256489
30240.0,0.2910078443353657,0.5270615565272248,233118.8990370648,0.7910078443353656
30420.0,0.29245363186064616,0.48440004995882724,233206.0910460574,0.7924536318606461
30600.0,0.2938913971987626,0.44259472779137804,233285.75809705985,0.7938913971987627
30780.0,0.29532109623124037,0.4016106183696326,233358.04800836637,0.7953210962312404
30960.0,0.2967427068233718,0.3614129570213891,233423.10234063023,0.7967427068233718
31140.0,0.2981562278933378,0.32196726011666654,233481.05644745124,0.7981562278933378
31320.0,0.2995616784525822,0.28323939822953054,233532.03953913256,0.7995616784525822
31500.0,0.3009590966191438,0.24519566827413608,233576.1747594219,0.8009590966191438
31680.0,0.3023485386057037,0.2078028644877008,233613.57927502968,0.8023485386057037
31860.0,0.3037300776841563,0.17102834813453544,233644.36437769388,0.8037300776841563
32040.0,0.3051038031285608,0.13484011580690392,233668.6355985391,0.8051038031285608
32220.0,0.3064698191383723,0.09920686620045462,233686.4928344552,0.8064698191383723
32400.0,0.30782824374389517,0.06409806524404209,233698.0304861991,0.8078282437438952
32580.0,0.30917920769594,0.029484009466318056,233703.33760790303,0.80917920769594
32760.0,0.3105228533416942,-0.004664112515986,233702.49806765016,0.8105228533416942
32940.0,0.31185933348885553,-0.03837416050012764,233695.59071876013,0.8118593334888555
33120.0,0.3131888102600965,-0.07167298529866023,233682.68958140636,0.8131888102600965
33300.0,0.31451145393995766,-0.10458637354550618,233663.86403416816,0.8145114539399576
33480.0,0.3158274418162817,-0.13713899480854394,233639.17901510262,0.8158274418162816
33660.0,0.3171369570183191,-0.16935435110668395,233608.69523190343,0.8171369570183191
33840.0,0.31844018735364704,-0.20125472892518817,233572.4693806969,0.8184401873536471
34020.0,0.319737324146048,-0.23286115381869774,233530.5543730095,0.8197373241460479
34200.0,0.3210285610765009,-0.26419334768685077,233482.99957042586,0.8210285610765009
34380.0,0.3223140930294356,-0.2952696888026196,233429.85102644138,0.8223140930294356
34560.0,0.3235941149463939,-0.32610717466852074,233371.15173500104,0.8235941149463939
34740.0,0.32486882068923423,-0.35672138777073026,233306.9418852023,0.8248688206892343
34920.0,0.32613840191500215,-0.3871264642957596,233237.25912162906,0.8261384019150022
35100.0,0.3274030469645689,-0.4173350658689347,233162.13880977264,0.8274030469645689
35280.0,0.3286629397671218,-0.44735835436818305,233081.61430598638,0.8286629397671218
35460.0,0.3299182587625603,-0.47720596986092295,232995.71723141143,0.8299182587625603
35640.0,0.33116917584382227,-0.5068860117058894,232904.47774930438,0.8311691758438222
35820.0,0.33241585532113266,-0.5364050228556809,232807.92484519037,0.8324158553211327
36000.0,0.3336584529101212,-0.5657679773897307,232706.0866092602,0.8336584529101212
36180.0,0.334897114745722,-0.5949782713010853,232598.990520426,0.834897114745722
36360.0,0.3361319764237129,-0.6240377165541681,232486.66373144626,0.836131976423713
36540.0,0.33736316207170625,-0.6529465384242387,232369.13335452988,0.8373631620717062
36720.0,0.3385907834513464,-0.681703376122921,232246.42674682775,0.8385907834513464
36900.0,0.33981493909341187,-0.7103052867076872,232118.57179522037,0.8398149390934119
37080.0,0.3410357134674578,-0.7387477522667245,231985.59719981236,0.8410357134674578
37260.0,0.34225317618756856,-0.767024690364153,231847.5327555468,0.8422531761875686
37440.0,0.34346738125572224,-0.7951284677241595,231704.40963135645,0.8434673812557223
37620.0,0.3446783663441983,-0.8230499171260797,231556.26064627376,0.8446783663441984
37800.0,0.3458861521183806,-0.8507783574762304,231403.12054192804,0.8458861521183806
37980.0,0.347090741601236,-0.8783016170158862,231245.0262508652,0.847090741601236
38160.0,0.34829211958066275,-0.905606059618598,231082.01716013384,0.8482921195806628
38340.0,0.3494902520608253,-0.9326766141239158,230914.13536959153,0.8494902520608253
38520.0,0.3506850857585005,-0.9594968066485198,230741.4259443948,0.8506850857585004
38700.0,0.3518765476453796,-0.9860487958098869,230563.93716114902,0.8518765476453796
38880.0,0.3530645445371751,-1.0123134107918224,230381.7207472065,0.8530645445371752
39060.0,0.35424896273029327,-1.0382701921755721,230194.8321126149,0.8542489627302933
39240.0,0.3554296676867402,-1.0638974354547548,230003.33057423306,0.8554296676867402
39420.0,0.3566065037678342,-1.0891722371471133,229807.27957154656,0.8566065037678342
39600.0,0.35777929401720165,-1.1140705434109364,229606.7468737326,0.8577792940172017
39780.0,0.3589478399934387,-1.1385672010691763,229401.80477754015,0.8589478399934387
39960.0,0.36011192165272365,-1.1626360109395208,229192.53029557105,0.8601119216527237
40140.0,0.36127129728156476,-1.1862497833643744,228979.00533456547,0.8612712972815648
40320.0,0.36242570347977565,-1.2093803958302995,228761.31686331602,0.8624257034797757
40500.0,0.36357485519366733,-1.23199885256268,228539.55706985475,0.8635748551936673
40680.0,0.3647184457993518,-1.254075345977517,228313.8235075788,0.8647184457993518
40860.0,0.3658561472359525,-1.275579319868886,228084.2192300024,0.8658561472359525
41040.0,0.3669876101884224,-1.296479534207391,227850.85291384507,0.8669876101884224
41220.0,0.368112464319573,-1.3167441314219732,227613.8389701891,0.868112464319573
41400.0,0.369230318550822,-1.3363407040349506,227373.2976434628,0.869230318550822
41580.0,0.370340761391077,-1.3552363635176181,227129.35509802963,0.870340761391077
41760.0,0.3714433613130759,-1.3733978102318756,226882.1434921879,0.8714433613130759
41940.0,0.37253766717641923,-1.3907914043214762,226631.80103941003,0.8725376671764192
42120.0,0.3736232086964345,-1.4073832374150839,226378.47205667532,0.8736232086964345
42300.0,0.37469949695793386,-1.4231392050021208,226122.30699977494,0.8746994969579338
42480.0,0.37576602497283346,-1.4380250793415368,225863.46248549345,0.8757660249728334
42660.0,0.37682226828052867,-1.4520065827631012,225602.10130059608,0.8768222682805287
42840.0,0.37786768558983275,-1.4650494612204803,225338.3923975764,0.8778676855898327
43020.0,0.3789017194612153,-1.4771195579554424,225072.5108771444,0.8789017194612153
43200.0,0.3799237970279997,-1.4881828871328022,224804.6379574605,0.8799237970279997
43380.0,0.38093333075510843,-1.4982057073064095,224534.96093014535,0.8809333307551084
