t(s),Tsurface(蚓),Flux(W),E(J),f_liq
0.0,4.0,38.400000000000034,0.0,1.0
180.0,3.867450687971113,38.09223962253672,6856.603132056609,1.0
360.0,3.7510777210390445,37.8500453269041,13669.611290899347,1.0
540.0,3.647846827628534,37.660240285205354,20448.45454223631,1.0
720.0,3.5554121030960584,37.5125684877964,27200.716870039665,1.0
900.0,3.4719034911776077,37.3987725482707,33932.49592872839,1.0
1080.0,3.395805933729203,37.31208185735912,40648.67066305303,1.0
1260.0,3.3258803610927745,37.24688395090374,47353.10977421571,1.0
1440.0,3.261107512879626,37.1984935825954,54048.838619082875,1.0
1620.0,3.200645786794313,37.16298051483192,60738.17511175262,1.0
1800.0,3.143798509834226,37.13703602640235,67422.84159650505,1.0
1980.0,3.089987971837807,37.11786685132814,74104.05762974411,1.0
2160.0,3.0387345402694725,37.1031095794344,80782.6173540423,1.0
2340.0,2.9896397094540634,37.09076085357491,87458.9543076858,1.0
2520.0,2.942372255610632,37.07912003629083,94133.19591421814,1.0
2700.0,2.8966568747432784,37.066741863691256,100805.20944968257,1.0
2880.0,2.8522648227675824,37.0523971783735,107474.64094178981,1.0
3060.0,2.809006180691618,37.03504024528984,114140.94818594198,1.0
3240.0,2.7667234454032505,37.01378146184644,120803.42884907433,1.0
3420.0,2.725286206331245,36.987864508722964,127461.24446064446,1.0
3600.0,2.6845867148069664,36.95664717096597,134113.44095141834,1.0
3780.0,2.64453618963784,36.919585203105456,140758.96628797732,1.0
3960.0,2.6050617315384765,36.876218726638456,147396.68565877224,1.0
4140.0,2.56610374235467,36.82616073994623,154025.39459196257,1.0
4320.0,2.527613763735895,36.76908739458055,160643.83032298708,1.0
4500.0,2.489552665034546,36.704729751673675,167250.68167828835,0.9895526650345459
4680.0,2.45188912248162,36.63286678090682,173844.59769885158,0.9518891224816199
4860.0,2.4145983416875083,36.55331940427928,180424.19519162184,0.9145983416875083
5040.0,2.3776609836949016,36.46594541960746,186988.06536715117,0.8776609836949016
5220.0,2.341062261523345,36.37063516563567,193534.7796969656,0.8410622615233452
5400.0,2.3047911796719447,36.2673078129452,200062.8951032957,0.8047911796719447
5580.0,2.268839893610659,36.15590818336957,206570.95857630225,0.7688398936106591
5760.0,2.233203170069258,36.036404016053964,213057.51129919197,0.7332031700692578
5940.0,2.197877932068752,35.90878361118241,219521.09234920482,0.697877932068752
6120.0,2.1628628752478183,35.773053793191046,225960.2420319792,0.6628628752478183
6300.0,2.1281581442094293,35.629238144343404,232373.50489796101,0.6281581442094293
6480.0,2.0937492558038304,35.47727915313636,238759.41514552556,0.5937492558038304
6660.0,2.059607955987191,35.317041613265225,245116.4826359133,0.5596079559871909
6840.0,2.025711360748401,35.14842863045019,251443.19978939433,0.5257113607484012
7020.0,1.992053914638437,34.97145610855052,257738.06188893341,0.49205391463843706
7200.0,1.9586466791230308,34.786250324140155,263999.58694727864,0.4586466791230308
7380.0,1.9255114653792575,34.59301316910549,270226.32931771764,0.42551146537925755
7560.0,1.892675144017111,34.39198756086288,276416.88707867294,0.392675144017111
7740.0,1.860165652656899,34.18343265264744,282569.90495614946,0.36016565265689904
7920.0,1.8280096106676964,33.96760859827657,288684.07450383925,0.3280096106676964
8100.0,1.7962310856589676,33.744768280787696,294758.13279438106,0.2962310856589676
8280.0,1.7648510939352988,33.51515355176019,300790.8604336979,0.2648510939352988
8460.0,1.7338875340680935,33.27899418587012,306781.0793871545,0.23388753406809348
8640.0,1.7033553566578095,33.03650835916555,312727.6508918043,0.20335535665780946
8820.0,1.6732668480422248,32.78790390053107,318629.4735938999,0.1732668480422248
9000.0,1.6436319551850957,32.53337986160067,324485.481968988,0.14363195518509575
9180.0,1.614458610439894,32.27312814073476,330294.6450343203,0.11445861043989392
9360.0,1.585753034345713,32.00733501602317,336055.96533720446,0.08575303434571291
9540.0,1.5575200063524757,31.73618251543385,341768.47818998253,0.05752000635247567
9720.0,1.5297631002414371,31.459849595925952,347431.2511172492,0.029763100241437135
9900.0,1.502484884851,31.17851312853869,353043.38348038617,0.0024848848509999577
10080.0,0.7552028231660616,26.287564396209437,357775.1450717039,0.0
10260.0,0.7389598184226729,26.058405158512475,362465.65800023614,0.0
10440.0,0.7238004181056344,25.829459984713854,367114.9607974846,0.0
10620.0,0.7096479644363572,25.600384726170923,371723.0300481954,0.0
10800.0,0.6964384318820823,25.37091446303008,376289.7946515408,0.0
10980.0,0.6841156555745781,25.140833584675583,380815.1446967824,0.0
11160.0,0.6726294259617154,24.909964052173798,385298.9382261737,0.0
11340.0,0.6619344979810814,24.67815941488827,389741.0069208536,0.0
11520.0,0.651989924819564,24.445300829131895,394141.1610700973,0.0
11700.0,0.6427509231500531,24.21124532045605,398499.1852277794,0.0
11880.0,0.6341860102974414,23.975935512473168,402814.8536200246,0.0
12060.0,0.6262687077529503,23.739346594838413,407087.9360070955,0.0
12240.0,0.6189736423484256,23.501461473113608,411318.1990722559,0.0
12420.0,0.6122766266944023,23.26227134525821,415505.4079144024,0.0
12600.0,0.6061546838487661,23.021775901154097,419649.32757661014,0.0
12780.0,0.600586040227319,22.7799832997299,423749.72457056155,0.0
12960.0,0.5955500973304328,22.53690999265805,427806.36836924,0.0
13140.0,0.5911403760902451,22.293293187254697,431819.1611429459,0.0
13320.0,0.587199351584246,22.048284372996918,435787.8523300853,0.0
13500.0,0.5837117613124904,21.80193695585998,439712.2009821401,0.0
13680.0,0.5806633282611655,21.554311313671683,443591.97701860097,0.0
13860.0,0.5780406512416268,21.305474014617133,447426.96234123205,0.0
14040.0,0.5758311060764835,21.055497099726075,451216.9518191827,0.0
14220.0,0.5740227576163299,20.804457430313807,454961.7541566392,0.0
14400.0,0.5726042816288176,20.552436095199944,458661.1926537752,0.0
14580.0,0.571564895518219,20.299517871854086,462315.10587070894,0.0
14760.0,0.5708942969073465,20.045790735966357,465923.34820318286,0.0
14940.0,0.5705826092128117,19.791345414465386,469485.7903777866,0.0
15120.0,0.5706203334403762,19.536274977527185,473002.31987374154,0.0
15300.0,0.5709983055138395,19.28067446559458,476472.8412775486,0.0
15480.0,0.5717076585281236,19.024640547853817,479897.27657616226,0.0
15660.0,0.5727397893857135,18.768271208997298,483275.56539378176,0.0
15840.0,0.5740863293363041,18.511665461442664,486607.66517684143,0.0
16020.0,0.5757391179932725,18.25492308048169,489893.5513313281,0.0
16200.0,0.5776901804482322,17.99814436010443,493133.2173161469,0.0
16380.0,0.5799317071471384,17.741429887485676,496326.6746958943,0.0
16560.0,0.5824484627274447,17.484835873272065,499473.94515308324,0.0
16740.0,0.5852426056346246,17.228520165666133,502575.07878290315,0.0
16920.0,0.5883064506024476,16.972581257849505,505630.1434093161,0.0
17100.0,0.591632463203125,16.717117467580856,508639.2245534806,0.0
17280.0,0.595213230481153,16.462226666470087,511602.42535344523,0.0
17460.0,0.59904144628537,16.208006098954954,514519.86645125714,0.0
17640.0,0.6031099009638662,15.954552229336072,517391.68585253763,0.0
17820.0,0.6074114730929366,15.701960602999574,520218.03876107757,0.0
18000.0,0.6119391225796899,15.45032571788155,522999.0973902962,0.0
18180.0,0.6166858848808469,15.199740904620132,525735.0507531279,0.0
18360.0,0.6216448661878338,14.950298214480494,528426.1044317344,0.0
18540.0,0.6268092394639664,14.70208831435442,531072.4803283182,0.0
18720.0,0.6321722412368344,14.45520038824375,533674.4163982021,0.0
18900.0,0.6377271690608567,14.20972204471312,536232.1663662505,0.0
19080.0,0.6434673795746387,13.965739229860397,538745.9994276253,0.0
19260.0,0.649386287086112,13.72333614540795,541216.1999337988,0.0
19440.0,0.6554773626257514,13.48259517156689,543643.0670646807,0.0
19620.0,0.6617341334146314,13.243596794369541,546026.9144876673,0.0
19800.0,0.6681501826997887,13.006419537204998,548368.0700043641,0.0
19980.0,0.6747191499143906,12.77113989632588,550666.8751857028,0.0
20160.0,0.6814347311246705,12.537832280127239,552923.6849961258,0.0
20340.0,0.6882906797295149,12.306568952024646,555138.8674074902,0.0
20520.0,0.6952808073820655,12.077419976784393,557312.8030033114,0.0
20700.0,0.7023989851057576,11.850453170180362,559445.8845739439,0.0
20880.0,0.7096391445799333,11.62573405187228,561538.516703281,0.0
21060.0,0.7169952795725482,11.40332580141772,563591.1153475362,0.0
21240.0,0.7244614474996063,11.183289217346163,565604.1074066585,0.0
21420.0,0.732031771092811,10.965682679237691,567577.9302889212,0.0
21600.0,0.7397004401585703,10.75056211276114,569513.0314692182,0.0
21780.0,0.7474617134129387,10.537980957639052,571409.8680415932,0.0
21960.0,0.7553099203783561,10.327990138514979,573268.906266526,0.0
22140.0,0.7632394633291734,10.120638038709398,575090.6211134937,0.0
22320.0,0.7712448192739477,9.915970476857167,576875.495799328,0.0
22500.0,0.7793205419633695,9.714030686426927,578624.0213228848,0.0
22680.0,0.7874612639134642,9.514859298128503,580336.6959965479,0.0
22860.0,0.7956616984343811,9.318494325220009,582014.0249750875,0.0
23040.0,0.803916641655712,9.124971151730112,583656.519782399,0.0
23220.0,0.8122209745397971,8.934322523615148,585264.6978366497,0.0
23400.0,0.8205696648749672,8.74657854287336,586839.0819743669,0.0
23580.0,0.8289577692410892,8.561766664641233,588380.1999740023,0.0
23760.0,0.8373804349401653,8.379911697297938,589888.5840795159,0.0
23940.0,0.8458329018850733,8.201035805605823,591364.770524525,0.0
24120.0,0.8543105044398435,8.02515851691469,592809.2990575696,0.0
24300.0,0.8628086732051474,7.852296730457902,594222.712469052,0.0
24480.0,0.8713229367429293,7.682464729767518,595605.5561204102,0.0
24660.0,0.8798489232343422,7.5156741982349144,596958.3774760925,0.0
24840.0,0.8883823620653751,7.351934237841136,598281.7256389039,0.0
25020.0,0.89691908533476,7.191251391079587,599576.1508892982,0.0
25200.0,0.9054550292789467,7.0336296660905795,600842.2042291944,0.0
25380.0,0.9139862356091208,6.879070565024586,602080.4369308988,0.0
25560.0,0.9225088527554298,6.727573115646886,603291.4000917153,0.0
25740.0,0.9310191370137566,6.579133906192736,604475.64419483,0.0
25920.0,0.9395134535905698,6.433747123477347,605633.7186770559,0.0
26100.0,0.9479882775415616,6.291404594260087,606766.1715040227,0.0
26280.0,0.9564401945999582,6.1520958298571164,607873.548753397,0.0
26460.0,0.9648659018906072,6.015808073990503,608956.3942067153,0.0
26640.0,0.9732622085260993,5.882526353856154,610015.2489504094,0.0
26820.0,0.9816260360814266,5.752233534385958,611050.6509865988,0.0
27000.0,0.9899544189438584,5.62491037567286,612063.13485422,0.0
27180.0,0.9982445045349504,5.500535593520255,613053.2312610536,0.0
27360.0,1.006493553401821,5.379085923069627,614021.4667272061,0.0
27540.0,1.0146989391750703,5.260536185452342,614968.3632405875,0.0
27720.0,1.0228581483909627,5.1448593574036305,615894.4379249202,0.0
27900.0,1.0309687801757452,5.03202664376827,616800.2027207986,0.0
28080.0,1.0390285457902537,4.922007552819053,617686.164080306,0.0
28260.0,1.0470352680332207,4.814769974300418,618552.82267568,0.0
28440.0,1.054986880502003,4.710280260100597,619400.6731224982,0.0
28620.0,1.0628814267097366,4.608503307446989,620230.2037178386,0.0
28800.0,1.0707170590582404,4.509402644510102,621041.8961938504,0.0
28980.0,1.0784920376663067,4.412940518292654,621836.2254871432,0.0
29160.0,1.0862047290533572,4.319077984671242,622613.659524384,0.0
29340.0,1.0938536046787595,4.227775000448905,623374.6590244648,0.0
29520.0,1.1014372393374772,4.138990517268383,624119.6773175731,0.0
29700.0,1.1089543094130507,4.052682577226626,624849.1601814739,0.0
29880.0,1.1164035909892975,3.9688084100231165,625563.5456952781,0.0
30060.0,1.1237839578224609,3.8873245314657128,626263.2641109419,0.0
30240.0,1.1310943791759387,3.8081868431500903,626948.7377427089,0.0
30420.0,1.1383339175200768,3.7313507331209905,627620.3808746707,0.0
30600.0,1.145501726099913,3.6567711773160396,628278.5996865876,0.0
30780.0,1.1525970463741244,3.5844028415862637,628923.7921980731,0.0
30960.0,1.159619205328832,3.5142001840806603,629556.3482312077,0.0
31140.0,1.1665676126702793,3.4461175577765117,630176.6493916075,0.0
31320.0,1.1734417579008083,3.3801093129315607,630785.0690679352,0.0
31500.0,1.1802412072829043,3.3161298992295167,631381.9724497965,0.0
31680.0,1.186965600696487,3.254133967386138,631967.716563926,0.0
31860.0,1.193614648394957,3.194076469979697,632542.6503285223,0.0
32040.0,1.2001881276658977,3.135912761266891,633107.1146255503,0.0
32220.0,1.206685879402658,3.079598695743351,633661.4423907842,0.0
32400.0,1.213107804593387,3.025090725206457,634205.9587213213,0.0
32580.0,1.2194538607344247,2.9723459940781556,634740.9810002553,0.0
32760.0,1.2257240581752475,2.9213224327454723,635266.8190381496,0.0
32940.0,1.2319184564024723,2.871978848678092,635783.7752309116,0.0
33120.0,1.2380371602707048,2.8242750150843667,636292.1447336267,0.0
33300.0,1.24408031618826,2.778171756870153,636792.2156498634,0.0
33480.0,1.2500481082660386,2.7336310336690355,637284.2692359238,0.0
33660.0,1.2559407544380448,2.690616019717119,637768.5801194728,0.0
33840.0,1.2617585025622355,2.649091180351589,638245.4165319361,0.0
34020.0,1.267501626510557,2.6090223449187473,638715.0405540215,0.0
34200.0,1.2731704222571558,2.5703767758849043,639177.7083736807,0.0
34380.0,1.2787652039738915,2.5331232339519048,639633.670555792,0.0
34560.0,1.284286300142344,2.497232038988417,640083.1723228099,0.0
34740.0,1.2897340496915835,2.4626751265981826,640526.4538455976,0.0
34920.0,1.2951087981709966,2.42942610015752,640963.7505436259,0.0
35100.0,1.3004108939674621,2.397460278165863,641395.2933936957,0.0
35280.0,1.305640684576149,2.3667547367658455,641821.3092463135,0.0
35460.0,1.3107985129341309,2.337288347302316,642242.021148828,0.0
35640.0,1.315884713825946,2.309041808803646,642657.6486744126,0.0
35820.0,1.3208996103700843,2.2819976752830025,643068.4082559636,0.0
36000.0,1.325843510595241,2.2561403777720868,643474.5135239626,0.0
36180.0,1.3307167041149972,2.2314562410154006,643876.1756473454,0.0
36360.0,1.3355194589093573,2.2079334947687044,644273.6036764038,0.0
36540.0,1.3402520182213415,2.1855622796616263,644667.0048867428,0.0
36720.0,1.3449145975765495,2.1643346476007213,645056.5851233109,0.0
36900.0,1.349507381933306,2.144244556705961,645442.549143518,0.0
37080.0,1.3540305229706793,2.1252878607903325,645825.1009584602,0.0
37260.0,1.3584841365212847,2.107462293409201,646204.4441712738,0.0
37440.0,1.362868300155427,2.090767446522715,646580.7823116479,0.0
37620.0,1.3671830509227036,2.0752047438314625,646954.3191655376,0.0
37800.0,1.371428383256779,2.0607774088620214,647325.2590991327,0.0
37980.0,1.3756042470485774,2.0474904278954673,647693.8073761539,0.0
38160.0,1.3797105458926742,2.03535050784789,648060.1704675665,0.0
38340.0,1.383747135511184,2.0243660292276595,648424.5563528275,0.0
38520.0,1.3877138223589272,2.0145469943093293,648787.1748118032,0.0
38700.0,1.3916103624131526,2.0059049706787895,649148.2377065254,0.0
38880.0,1.395436460150557,1.998453030318348,649507.9592519826,0.0
39060.0,1.3991917677138033,1.99220568441388,649866.5562751772,0.0
39240.0,1.4028758842692035,1.9871788140789324,650224.2484617113,0.0
39420.0,1.4064883555566698,1.9833895972025999,650581.2585892078,0.0
39600.0,1.4100286736324907,1.9808564316392805,650937.8127469028,0.0
39780.0,1.4134962768049377,1.9795988549685517,651294.1405407971,0.0
39960.0,1.4168905497621478,1.9796374610630427,651650.4752837885,0.0
40140.0,1.420210823891185,1.980993813710446,652007.0541702564,0.0
40320.0,1.4234563777866425,1.9836903575435185,652364.1184346142,0.0
40500.0,1.426626437946606,1.9877503265382868,652721.913493391,0.0
40680.0,1.4297201796532852,1.9931976503463684,653080.6890704534,0.0
40860.0,1.4327367280350984,2.0000568587316208,653440.699305025,0.0
41040.0,1.4356751593065071,2.0083529843849885,653802.2028422144,0.0
41220.0,1.4385345021814109,2.018111464393668,654165.4629058052,0.0
41400.0,1.4413137394554494,2.02935804064226,654530.7473531208,0.0
41580.0,1.444011809752118,2.042118659423848,654898.3287118172,0.0
41760.0,1.4466276094271826,2.056419370538321,655268.484198514,0.0
41940.0,1.4491599946254687,2.072286226153676,655641.4957192217,0.0
42120.0,1.4516077834837366,2.0897451797033253,656017.6498515683,0.0
42300.0,1.4539697584729956,2.1088219850890133,656397.2378088844,0.0
42480.0,1.4562446688732849,2.1295420964544034,656780.5553862462,0.0
42660.0,1.4584312333736582,2.1519305687890795,657167.9028886282,0.0
42840.0,1.460528142789822,2.176011959616611,657559.5850413592,0.0
43020.0,1.4625340628916552,2.20181023201328,657955.9108831215,0.0
43200.0,1.4644476373326099,2.229348659196527,658357.1936417769,0.0
43380.0,1.466267490672807,2.2586497309136293,658763.7505933414,0.0
43560.0,1.4679922314875027,2.289735061852331,659175.9029044749,0.0
43740.0,1.4696204555524441,2.3226253022853345,659593.9754588862,0.0
43920.0,1.4711507490975702,2.357340051150632,660018.2966680933,0.0
44100.0,1.4725816921204147,2.3938977717590286,660449.1982670099,0.0
44280.0,1.4739118617505422,2.4323157103091564,660887.0150948656,0.0
44460.0,1.4751398356563419,2.4726098173790727,661332.0848619938,0.0
44640.0,1.4762641954854943,2.5147946725518855,661784.7479030532,0.0
44820.0,1.4772835303304948,2.5588834123209123,662245.3469172709,0.0
45000.0,1.4781964402106624,2.6048876614080534,662714.2266963244,0.0
45180.0,1.4790015395621667,2.6528174676167646,663191.7338404955,0.0
45360.0,1.4796974607277105,2.7026812403289857,663678.2164637547,0.0
45540.0,1.4802828574376539,2.7544856927430668,664174.0238884484,0.0
45720.0,1.480756408274507,2.808235787937744,664679.5063302772,0.0
45900.0,1.4811168201129148,2.863934688835142,665195.0145742676,0.0
46080.0,1.4813628315274427,2.921583712123885,665720.8996424498,0.0
46260.0,1.4814932161606875,2.9811822861918023,666257.5124539643,0.0
46440.0,1.481506786044467,3.042727913106229,666805.2034783234,0.0
46620.0,1.4814023948670958,3.106216134668835,667364.3223825638,0.0
46800.0,1.481178941179992,3.1716405025609973,667935.2176730249,0.0
46980.0,1.4808353715371527,3.238992552585358,668518.2363324902,0.0
47160.0,1.480370683561294,3.308261782999023,669113.72345343,0.0
47340.0,1.4797839289307504,3.3794356369243475,669722.0218680764,0.0
47520.0,1.4790742162815256,3.4524994888137455,670343.4717760629,0.0
47700.0,1.4782407140191731,3.5274366349365733,670978.4103703514,0.0
47880.0,1.4772826530355119,3.604228287847318,671627.1714621639,0.0
48060.0,1.4761993293254683,3.6828535747871,672290.0851056256,0.0
48240.0,1.4749901064996636,3.763289539962584,672967.4772228189,0.0
48420.0,1.473654418188667,3.845511150640062,673659.6692299341,0.0
48600.0,1.47219177033515,3.9294913069858595,674366.9776651915,0.0
48780.0,1.4706017433704806,4.015200855578612,675089.7138191956,0.0
48960.0,1.4688839942726133,4.102608606513582,675828.1833683681,0.0
49140.0,1.4670382585024133,4.191681354014471,676582.6860120906,0.0
49320.0,1.4650643518158748,4.282383900463905,677353.5151141741,0.0
49500.0,1.462962171949967,4.3746790837600456,678140.9573492509,0.0
49680.0,1.4607317001801299,4.468527807903414,678945.2923546735,0.0
49860.0,1.4583730027477282,4.563889076715317,679766.7923884823,0.0
50040.0,1.4558862321560344,4.660720030586883,680605.7219939879,0.0
50220.0,1.4532716283335743,4.758975986155621,681462.337671496,0.0
50400.0,1.4505295196639267,4.858610478805358,682336.887557681,0.0
50580.0,1.447660323881304,4.959575307883842,683229.6111131001,0.0
50760.0,1.4446645488314855,5.061820584531948,684140.7388183158,0.0
50940.0,1.4415427930978846,5.1652947820179484,685070.491879079,0.0
51120.0,1.438295746492761,5.269944788470291,686019.0819410037,0.0
51300.0,1.4349241904137784,5.375715961902807,686986.7108141462,0.0
51480.0,1.4314289980663055,5.482552187426664,687973.570207883,0.0
51660.0,1.4278111345520423,5.5903959365445655,688979.841476461,0.0
51840.0,1.4240716568247223,5.699188328423434,690005.6953755772,0.0
52020.0,1.420211713513802,5.808869193043705,691051.291830325,0.0
52200.0,1.4162325446171957,5.919377136124402,692116.7797148274,0.0
