t(s),Tsurface(蚓),Flux(W),E(J),f_liq
0.0,0.0,9.600000000000009,0.0,0.5
180.0,-0.010134751362712106,9.658712073983361,1738.568173317005,0.4898652486372879
360.0,-0.019803486066809137,9.717025627316062,3487.632786233896,0.48019651393319085
540.0,-0.02887641942597325,9.775206444707512,5247.1699462812485,0.47112358057402676
720.0,-0.03733885650570247,9.833246151485548,7017.154253548647,0.46266114349429754
900.0,-0.04522820337335436,9.891007961112072,8797.53568654882,0.45477179662664563
1080.0,-0.052598427129896035,9.948311029471022,10588.231671853602,0.44740157287010396
1260.0,-0.059505519120711996,10.004965803040008,12389.125516400803,0.440494480879288
1440.0,-0.06600221304435883,10.060787442157688,14200.067255989186,0.4339977869556412
1620.0,-0.07213636678515409,10.115600432294494,16020.875333802196,0.4278636332148459
1800.0,-0.07795073327816349,10.16923977960175,17851.338494130512,0.4220492667218365
1980.0,-0.08348322932683937,10.221550929183522,19691.217661383547,0.4165167706731606
2160.0,-0.0887673589122047,10.272389242251533,21540.24772498882,0.4112326410877953
2340.0,-0.09383266137499327,10.321619354685271,23398.13920883217,0.40616733862500676
2520.0,-0.09870513784454049,10.369114537932134,25264.579825659956,0.4012948621554595
2700.0,-0.10340764122902155,10.414756104480924,27139.23592446652,0.3965923587709784
2880.0,-0.10796022715144252,10.458432869738752,29021.753841019497,0.3920397728485575
3060.0,-0.11238046757731089,10.500040670681582,30911.761161742183,0.3876195324226891
3240.0,-0.11668373027316012,10.539481937589459,32808.867910508285,0.38331626972683985
3420.0,-0.12088342750478506,10.57666531397922,34712.66766702454,0.3791165724952149
3600.0,-0.1249912372459252,10.611505319734897,36622.73862457683,0.3750087627540748
3780.0,-0.1290172998980164,10.643922052710339,38538.64459406469,0.3709827001019836
3960.0,-0.1329703932240986,10.673840924472401,40459.935960469724,0.3670296067759014
4140.0,-0.13685808791312248,10.701192426263658,42386.150597197186,0.3631419120868775
4320.0,-0.14068688592723835,10.725911921655218,44316.81474309512,0.3593131140727617
4500.0,-0.14446234354692314,10.747939462717722,46251.44384638431,0.3555376564530769
4680.0,-0.14818918081620983,10.767219626865336,48189.54337922007,0.3518108191837902
4860.0,-0.1518713789008363,10.78370137181991,50130.609626147656,0.3481286210991637
5040.0,-0.15551226670357482,10.797337906406446,52074.130449300814,0.3444877332964252
5220.0,-0.15911459793113406,10.80808657512779,54019.58603282382,0.340885402068866
5400.0,-0.1626806196738158,10.815908754679617,55966.44960866615,0.3373193803261842
5580.0,-0.16621213344072014,10.820769760757818,57914.18816560256,0.33378786655927983
5760.0,-0.16971054948808564,10.82263876368324,59862.26314306554,0.3302894505119144
5940.0,-0.17317693518486416,10.821488711522823,61810.13111113965,0.32682306481513584
6120.0,-0.17661205807655334,10.817296259526742,63757.24443785446,0.32338794192344666
6300.0,-0.18001642423449504,10.810041704826087,65703.05194472315,0.31998357576550496
6480.0,-0.18339031241225517,10.799708925449211,67646.999551304,0.3166096875877448
6660.0,-0.18673380447242413,10.786285322817497,69588.53090941116,0.31326619552757584
6840.0,-0.19004681249539387,10.76976176697271,71527.08802746625,0.3099531875046061
7020.0,-0.19332910293566347,10.750132543872576,73462.11188536331,0.30667089706433653
7200.0,-0.19658031815035065,10.727395304165324,75393.04304011307,0.30341968184964935
7380.0,-0.19979999558827527,10.701551012922767,77319.32222243916,0.30020000441172473
7560.0,-0.20298758489572055,10.672603899872868,79240.39092441628,0.29701241510427945
7740.0,-0.20614246316632368,10.640561409728187,81155.69197816735,0.2938575368336763
7920.0,-0.20926394853708954,10.605434152257274,83064.67012557366,0.2907360514629105
8100.0,-0.21235131230991414,10.56723585179183,84966.77257889618,0.2876486876900859
8280.0,-0.21540378975791985,10.525983295903194,86861.44957215876,0.28459621024208015
8460.0,-0.21842058975807266,10.481696283020357,88748.15490310242,0.28157941024192734
8640.0,-0.22140090337570895,10.434397568794505,90626.34646548543,0.27859909662429105
8820.0,-0.22434391151254005,10.384112811046656,92495.48677147384,0.2756560884874599
9000.0,-0.2272487917172097,10.330870513162871,94355.04346384315,0.2727512082827903
9180.0,-0.2301147242463986,10.274701965826985,96204.48981769201,0.26988527575360144
9360.0,-0.23294089745462027,10.215641187003103,98043.30523135257,0.26705910254537973
9540.0,-0.2357265125821268,10.153724860102338,99870.975706171,0.2642734874178732
9720.0,-0.2384707880025781,10.088992270286301,101686.99431482253,0.2615292119974219
9900.0,-0.24117296298525842,10.02148523887721,103490.86165782042,0.2588270370147416
10080.0,-0.24383230102051126,9.951248055860537,105282.08630787532,0.25616769897948877
10260.0,-0.2464480927516541,9.878327410479905,107060.1852417617,0.25355190724834586
10440.0,-0.2490196585518281,9.802772319937112,108824.68425935038,0.25098034144817194
10620.0,-0.251546350779979,9.724634056221545,110575.11838947026,0.248453649220021
10800.0,-0.25402755574639035,9.643966071103925,112311.03228226896,0.24597244425360965
10980.0,-0.2564626954148413,9.560823919339182,114031.98058775002,0.2435373045851587
11160.0,-0.25885122886549594,9.475265180131208,115737.52832017363,0.24114877113450406
11340.0,-0.26119265354000304,9.387349376920696,117427.25120801936,0.23880734645999696
11520.0,-0.2634865062879576,9.297137895563871,119100.73602922085,0.2365134937120424
11700.0,-0.2657323642318154,9.204693900976519,120757.58093139662,0.2342676357681846
11880.0,-0.26792984546552606,9.110082252322982,122397.39573681475,0.23207015453447394
12060.0,-0.2700786096005401,9.013369416835149,124019.80223184508,0.2299213903994599
12240.0,-0.27217835817141456,8.914623382351085,125624.43444066828,0.22782164182858544
12420.0,-0.27422883491198313,8.813913568666338,127210.93888302823,0.22577116508801687
12600.0,-0.2762298259119396,8.71131073779514,128778.97481583135,0.22377017408806038
12780.0,-0.27818115966270235,8.606886903241367,130328.21445841479,0.22181884033729765
12960.0,-0.28008270700055526,8.500715238382014,131858.34320132356,0.21991729299944474
13140.0,-0.2819343809542968,8.39286998406813,133369.05979845583,0.2180656190457032
13320.0,-0.2837361365039515,8.283426355550043,134860.07654245483,0.21626386349604848
13500.0,-0.2854879702565039,8.172460448835677,136331.11942324525,0.2145120297434961
13680.0,-0.2871899200440913,8.060049146591492,137781.92826963172,0.21281007995590873
13860.0,-0.2888420644496295,7.946270023697429,139212.25687389725,0.2111579355503705
14040.0,-0.29044452226444245,7.831201252567091,140621.87309935933,0.20955547773555755
14220.0,-0.29199745188210824,7.7149215083459755,142010.5589708616,0.20800254811789176
14400.0,-0.2935010506324259,7.597509874099863,143378.11074819957,0.20649894936757413
14580.0,-0.2949555540591295,7.479045746106358,144724.3389824987,0.2050444459408705
14760.0,-0.2963612351447397,7.359608739362222,146049.06855558392,0.20363876485526028
14940.0,-0.2977184034857316,7.23927859341868,147352.13870239927,0.2022815965142684
15120.0,-0.29902740442101633,7.118135078656564,148633.40301655745,0.20097259557898367
15300.0,-0.3002886181165712,6.996257903112891,149892.72943911777,0.1997113818834288
15480.0,-0.3015024586089175,6.873726619968881,151130.00023071218,0.1984975413910825
15660.0,-0.3026693728100206,6.75062053580923,152345.11192715785,0.1973306271899794
15840.0,-0.3037898394760832,6.627018619761314,153537.97527871488,0.19621016052391682
16020.0,-0.3048643681426089,6.502999413621081,154708.51517316667,0.19513563185739108
16200.0,-0.3058934980280363,6.378640943072108,155856.67054291966,0.19410650197196372
16380.0,-0.3068777969081701,6.2540206301019685,156982.394256338,0.19312220309182992
16560.0,-0.3078178599635803,6.129215206719086,158085.65299354744,0.1921821400364197
16740.0,-0.30871430860208376,6.0043006300711195,159166.42710696024,0.19128569139791624
16920.0,-0.30956778925837874,5.879351999064535,160224.71046679185,0.19043221074162126
17100.0,-0.3103789721728639,5.7544434725826905,161260.51029185674,0.18962102782713608
17280.0,-0.31114855015163567,5.629648189398363,162273.84696594844,0.18885144984836433
17460.0,-0.3118772373096297,5.505038189873816,163264.75384012572,0.18812276269037032
17640.0,-0.31256576779884293,5.380684339540206,164233.27702124295,0.18743423220115707
17820.0,-0.31321489452355017,5.256656254644806,165179.475147079,0.18678510547644983
18000.0,-0.3138253878444042,5.1330222297533155,166103.4191484346,0.18617461215559578
18180.0,-0.3143980342732933,5.00984916749113,167005.191998583,0.18560196572670667
18360.0,-0.31493363516080386,4.887202510505444,167884.88845047398,0.18506636483919614
18540.0,-0.3154330053781265,4.765146175727321,168742.6147621049,0.18456699462187348
18720.0,-0.3158969719952226,4.643742491010124,169578.48841048672,0.1841030280047774
18900.0,-0.31632637295705057,4.523052134218005,170392.63779464597,0.18367362704294943
19080.0,-0.3167220557596397,4.40313407483529,171185.20192811632,0.1832779442403603
19260.0,-0.31708487612777986,4.284045518164692,171956.33012138598,0.18291512387222014
19440.0,-0.3174156966960802,4.165841852179137,172706.18165477822,0.18258430330391978
19620.0,-0.31771538569513286,4.048576597089302,173434.9254422543,0.18228461430486714
19800.0,-0.31798481564450115,3.9323013576852914,174142.73968663765,0.18201518435549885
19980.0,-0.3182248620542325,3.8170657785082036,174829.81152676913,0.1817751379457675
20160.0,-0.3184364021365789,3.7029175019036473,175496.3366771118,0.18156359786342108
20340.0,-0.3186203135295875,3.5899021290061697,176142.5190603329,0.18137968647041253
20520.0,-0.3187774730342005,3.4780631836999327,176768.5704333989,0.1812225269657995
20700.0,-0.3189087553664889,3.3674420795978195,177374.7100077265,0.18109124463351112
20880.0,-0.3190150319266094,3.258078090077167,177961.1640639404,0.1809849680733906
21060.0,-0.3190971695860631,3.1500083214070407,178528.16556179366,0.1809028304139369
21240.0,-0.3191560294947969,3.0432676889982346,179075.95374581334,0.18084397050520312
21420.0,-0.3191924659096691,2.9378888968032855,179604.77374723792,0.1808075340903309
21600.0,-0.31920732504576826,2.8339024198901543,180114.87618281815,0.18079267495423174
21780.0,-0.31920144395204453,2.7313364902093693,180606.51675105584,0.18079855604795547
21960.0,-0.31917564941268317,2.630217085570402,181079.95582645852,0.18082435058731683
22140.0,-0.3191307568756136,2.5305679218392227,181535.4580523896,0.1808692431243864
22320.0,-0.31906756940951364,2.4324104483648945,181973.29193309526,0.18093243059048636
22500.0,-0.318986876690635,2.3357638466390047,182393.72942549028,0.18101312330936498
22680.0,-0.3188894540207328,2.2406450321877105,182797.04553128406,0.18111054597926718
22860.0,-0.3187760613773471,2.1470686596919246,183183.5178900286,0.1812239386226529
23040.0,-0.3186474424976396,2.0550471313271053,183553.42637366746,0.1813525575023604
23220.0,-0.3185043239969499,1.9645906083097666,183907.05268316323,0.1814956760030501
23400.0,-0.3183474145231857,1.8757070256337398,184244.6799477773,0.1816525854768143
23580.0,-0.3181774039481223,1.7884021099747751,184566.59232757275,0.18182259605187773
23760.0,-0.31799496259663157,1.7026794007379198,184873.07461970559,0.18200503740336843
23940.0,-0.31780074051481916,1.618540274217778,185164.4118690648,0.18219925948518084
24120.0,-0.3175953667779906,1.5359839708372935,185440.8889838155,0.1824046332220094
24300.0,-0.31737944883932234,1.4550076254266138,185702.7903563923,0.18262055116067766
24480.0,-0.3171535719200521,1.375606300499025,185950.39949048212,0.1828464280799479
24660.0,-0.3169182984419561,1.2977730224768045,186183.99863452793,0.18308170155804387
24840.0,-0.316674167502817,1.2214988208153625,186403.8684222747,0.18332583249718298
25020.0,-0.316421694395534,1.1467727699699115,186610.2875208693,0.18357830560446597
25200.0,-0.3161613701714641,1.0735820341444675,186803.5322870153,0.18383862982853588
25380.0,-0.3158936612485242,1.0019119147588385,186983.87643167187,0.1841063387514758
25560.0,-0.31561900906452356,0.9317459005650256,187151.59069377359,0.18438099093547644
25740.0,-0.31533782977613073,0.8630657203402482,187306.94252343482,0.18466217022386927
25920.0,-0.3150505140038163,0.7958513980797551,187450.19577508917,0.18494948599618372
26100.0,-0.31475742662305056,0.7300813106084723,187581.6104109987,0.18524257337694944
26280.0,-0.31445890660196474,0.6657322475265661,187701.44221555348,0.18554109339803526
26460.0,-0.31415526688562206,0.6027794734000717,187809.9425207655,0.18584473311437794
26640.0,-0.3138467943269751,0.5411967921039174,187907.3579433442,0.1861532056730249
26820.0,-0.31353374966451775,0.4809566132209242,187993.93013372394,0.18646625033548225
27000.0,-0.3132163675465742,0.42203002039666376,188069.89553739535,0.18678363245342577
27180.0,-0.31289485660209476,0.364386841546609,188135.48516887374,0.18710514339790524
27360.0,-0.3125693995577591,0.30799572080849735,188190.92439861927,0.1874306004422409
27540.0,-0.3122401534011213,0.2528241921295746,188236.4327532026,0.18775984659887868
27720.0,-0.3119072495894559,0.19883875437520196,188272.22372899012,0.18809275041054407
27900.0,-0.3115707943038967,0.1460049478422696,188298.50461960174,0.18842920569610327
28080.0,-0.3112308687483901,0.09428743205800397,188315.4763573722,0.18876913125160988
28260.0,-0.3108875294929125,0.043650064742013675,188323.33336902576,0.18911247050708752
28440.0,-0.31054080886033375,-0.005944018193137966,188322.26344575098,0.18945919113966625
28620.0,-0.3101907153562371,-0.05453232172991627,188312.4476278396,0.1898092846437629
28800.0,-0.3098372341409387,-0.1021529100516518,188294.0601040303,0.19016276585906128
28980.0,-0.3094803275428797,-0.1488443241975311,188267.26812567475,0.19051967245712031
29160.0,-0.30911993561249673,-0.19464549919985077,188232.23193581877,0.19088006438750327
29340.0,-0.3087559767156106,-0.23959568083829422,188189.10471326788,0.1912440232843894
29520.0,-0.3083883481653057,-0.2837343421473058,188138.03253168135,0.1916116518346943
29700.0,-0.3080169268912075,-0.32710109981393204,188079.15433371483,0.19198307310879248
29880.0,-0.30764157014500476,-0.36973563060433623,188012.60192020604,0.19235842985499524
30060.0,-0.3072621162409958,-0.4116775879580117,187938.4999543736,0.1927378837590042
30240.0,-0.30687838533038375,-0.45296651888917216,187856.96598097356,0.19312161466961625
30420.0,-0.3064901802079789,-0.49364178133500586,187768.11046033326,0.1935098197920211
30600.0,-0.30609728714991874,-0.5337424620905842,187672.03681715697,0.19390271285008126
30780.0,-0.3056994767809491,-0.5733072954698392,187568.8415039724,0.1943005232190509
30960.0,-0.30529650496976696,-0.6123745828316393,187458.6140790627,0.19470349503023304
31140.0,-0.30488811375086816,-0.650982113109156,187341.43729870307,0.19511188624913184
31320.0,-0.3044740322712949,-0.6891670844797188,187217.3872234967,0.19552596772870512
31500.0,-0.30405397776063314,-0.7269660273110886,187086.53333858072,0.19594602223936686
31680.0,-0.3036276565225647,-0.7644147285185269,186948.93868744737,0.19637234347743532
31860.0,-0.30319476494623665,-0.8015481574652151,186804.66001910364,0.19680523505376335
32040.0,-0.30275499053567323,-0.8384003935365458,186653.74794826706,0.19724500946432677
32220.0,-0.30230801295541854,-0.8750045555164043,186496.24712827412,0.19769198704458146
32400.0,-0.30185350509056574,-0.9113927328910957,186332.19643635373,0.19814649490943426
32580.0,-0.301391134119298,-0.9475959192035072,186161.6291708971,0.19860886588070198
32760.0,-0.30092056259604116,-0.9836439475772331,185984.57326033319,0.19907943740395884
32940.0,-0.3004414495433017,-1.0195654285268052,185801.05148319836,0.1995585504566983
33120.0,-0.2999534515502464,-1.0553876901666734,185611.08169896837,0.20004654844975361
33300.0,-0.2994562238760605,-1.0911367209277072,185414.67708920137,0.20054377612393948
33480.0,-0.2989494215561108,-1.1268371148858376,185211.84640852193,0.20105057844388918
33660.0,-0.2984327005089269,-1.1625120198031715,185002.59424495735,0.2015672994910731
33840.0,-0.2979057186420085,-1.1981830879773596,184786.9212891214,0.2020942813579915
34020.0,-0.2973681369544671,-1.2338704299901118,184564.8246117232,0.20263186304553288
34200.0,-0.2968196206345056,-1.2695925714409433,184336.29794886382,0.20318037936549438
34380.0,-0.2962598401497494,-1.3053664127468712,184101.3319945694,0.20374015985025062
34560.0,-0.29568847232844675,-1.3412071920834525,183859.91469999438,0.20431152767155325
34740.0,-0.2951052014295718,-1.3771284515370743,183612.0315787177,0.2048947985704282
34920.0,-0.2945097201998762,-1.4131420065325127,183357.66601754184,0.2054902798001238
35100.0,-0.2939017309159574,-1.449257918593965,183096.79959219493,0.2060982690840426
35280.0,-0.29328094640943286,-1.4854844714917732,182829.41238732642,0.20671905359056714
35460.0,-0.2926470910733394,-1.521828150820676,182555.4833201787,0.20735290892666058
35640.0,-0.291999901847902,-1.5582936270494065,182274.9904673098,0.20800009815209802
35820.0,-0.2913391291838577,-1.5948837420747113,181987.91139373637,0.20866087081614232
36000.0,-0.290664537981553,-1.6315994993066545,181694.22348386116,0.209335462018447
36180.0,-0.28997590850407595,-1.668440057305282,181393.9042735462,0.21002409149592405
36360.0,-0.2892730372627282,-1.7054027269821672,181086.9317826894,0.21072696273727182
36540.0,-0.28855573787319444,-1.7424829723735373,180773.28484766217,0.21144426212680556
36720.0,-0.28782384188081067,-1.7796744149851125,180452.94345296486,0.21217615811918933
36900.0,-0.28707719955339633,-1.8169688417018168,180125.88906145853,0.21292280044660367
37080.0,-0.2863156806401651,-1.854356216248906,179792.1049425337,0.2136843193598349
37260.0,-0.2855391750952953,-1.8918246941841763,179451.57649758057,0.2144608249047047
37440.0,-0.2847475937648033,-1.9293606413942912,179104.2915821296,0.2152524062351967
37620.0,-0.28394086903542765,-1.9669486560614036,178750.24082403854,0.21605913096457235
37800.0,-0.2831189554443046,-2.0045715940598354,178389.41793710776,0.2168810445556954
37980.0,-0.2822818302482828,-2.0422105977357212,178021.82002951534,0.2177181697517172
38160.0,-0.2814294939518036,-2.0798451280163115,177647.4479064724,0.2185705060481964
38340.0,-0.2805619707923453,-2.117452999789058,177266.30636651037,0.2194380292076547
38520.0,-0.2796793091825108,-2.155010420484408,176878.4044908232,0.22032069081748917
38700.0,-0.2787815821079166,-2.1924920317901297,176483.75592510097,0.2212184178920834
38880.0,-0.2778688874801233,-2.229870954418904,176082.37915330558,0.22213111251987672
39060.0,-0.2769413484439311,-2.2671188358452246,175674.29776285344,0.2230586515560689
39240.0,-0.2759991136384488,-2.3042059009218745,175259.5407006875,0.2240008863615512
39420.0,-0.275042357411429,-2.341101005280844,174838.14251973695,0.22495764258857098
39600.0,-0.2740712799864509,-2.3777716914182445,174410.14361528168,0.22592872001354908
39780.0,-0.2730861075826191,-2.4141842473578126,173975.59045075727,0.2269138924173809
39960.0,-0.2720870924865341,-2.450303767782597,173534.5357725564,0.22791290751346588
40140.0,-0.27107451307638003,-2.4860942175199767,173087.03881340282,0.22892548692361997
40320.0,-0.2700486737980626,-2.5215184972607547,172633.1654838959,0.22995132620193742
40500.0,-0.2690099050934223,-2.5565385113888857,172172.9885518459,0.23099009490657768
40680.0,-0.26795856328063056,-2.591115237794716,171706.58780904283,0.23204143671936944
40860.0,-0.266895030386973,-2.6252087995408835,171234.05022512548,0.233104969613027
41040.0,-0.26581971393430404,-2.658778538246846,170755.47008824104,0.23418028606569596
41220.0,-0.26473304667755027,-2.691783089054924,170270.94913221116,0.23526695332244973
41400.0,-0.26363548629672245,-2.724180457038117,169780.5966499443,0.23636451370327755
41580.0,-0.26252751504298316,-2.7559280949073535,169284.52959286096,0.23747248495701684
41760.0,-0.2614096393394002,-2.786982981874015,168782.87265612363,0.2385903606605998
41940.0,-0.26028238933709885,-2.817301703521347,168275.75834948977,0.23971761066290115
