t(s),Tsurface(蚓),Flux(W),E(J),f_liq
0.0,6.0,24.000000000000025,0.0,1.0
180.0,4.898205531586465,21.54151704895276,3877.4730688114964,1.0
360.0,4.350314588212451,20.38828045223586,7547.363550213951,1.0
540.0,3.9777562086661296,19.642610170459594,11083.033380896679,1.0
720.0,3.6906615545077264,19.092192861137324,14519.628095901397,1.0
900.0,3.4576969619790634,18.663807144730065,17879.113381952808,1.0
1080.0,3.263463711167583,18.321857286700787,21177.04769355895,1.0
1260.0,3.0984058229929214,18.04433993042289,24425.028881035072,1.0
1440.0,2.955806909803396,17.81574489224011,27631.862961638293,1.0
1620.0,2.8306732046031007,17.624461352904,30804.266005161015,1.0
1800.0,2.719204855184042,17.46157890263822,33947.35020763589,1.0
1980.0,2.6184844771361564,17.320193656318676,37064.98506577325,1.0
2160.0,2.526265012432923,17.194938488348843,40160.073993676044,1.0
2340.0,2.5262558880888846,17.309514697087312,43275.78663915176,1.0
2520.0,2.5262253062974778,17.421500356645954,46411.65670334803,1.0
2700.0,2.5258835395455335,17.530003877336704,49567.05740126864,1.0
2880.0,2.525122908267191,17.634609511095206,52741.287113265775,1.0
3060.0,2.5238972559790036,17.73506465862436,55933.59875181816,1.0
3240.0,2.5221842029725994,17.831181754788016,59143.21146768,1.0
3420.0,2.519972702884897,17.92280613667504,62369.3165722815,1.0
3600.0,2.5172584756635,18.009804515881278,65611.08138514013,1.0
3780.0,2.5140419821475293,18.092060074682024,68867.6521985829,1.0
3960.0,2.51032728744427,18.169469836521824,72138.15676915683,1.0
4140.0,2.5061212879594525,18.241942930404193,75421.70649662959,1.0
4320.0,2.501433125135778,18.309399290038197,78717.39836883647,1.0
4500.0,2.4962737183702575,18.371768618269012,82024.31672012489,0.9962737183702575
4680.0,2.4906553854435116,18.428989541375312,85341.53483757244,0.9906553854435116
4860.0,2.4845915317230074,18.48100891075681,88668.11644150867,0.9845915317230074
5040.0,2.4780963949638393,18.527781222962993,92003.11706164201,0.9780963949638393
5220.0,2.471184835552533,18.56926813587512,95345.58532609954,0.971184835552533
5400.0,2.463872164049898,18.605438063228863,98694.56417748073,0.963872164049898
5580.0,2.4561739993977096,18.636265832897262,102049.09202740224,0.9561739993977096
5760.0,2.4481061523509298,18.661732396912832,105408.20385884655,0.9481061523509298
5940.0,2.4396845296684253,18.681824583299388,108770.93228384045,0.9396845296684253
6120.0,2.4309250553901762,18.696534881510747,112136.30856251238,0.9309250553901762
6300.0,2.4218436061818007,18.705861254705994,115503.36358835945,0.9218436061818007
6480.0,2.4124559582639598,18.70980697328163,118871.12884355015,0.9124559582639598
6660.0,2.402777743885635,18.708380465069656,122238.63732726268,0.9027777438856348
6840.0,2.3928244156633394,18.70159517843349,125604.92445938071,0.8928244156633394
7020.0,2.382611217406957,18.689469455177473,128969.02896131265,0.8826112174069571
7200.0,2.3721531602984993,18.672026410753208,132329.99371524822,0.8721531602984993
7380.0,2.3614650034920124,18.64929381971858,135686.86660279756,0.8614650034920124
7560.0,2.3505612383689547,18.62130400479798,139038.7013236612,0.8505612383689547
7740.0,2.3394560758198537,18.58809372821615,142384.5581947401,0.8394560758198537
7920.0,2.3281634360352927,18.549704084250248,145723.50492990515,0.8281634360352927
8100.0,2.3166969403814797,18.506180392167188,149054.61740049525,0.8166969403814797
8280.0,2.3050699050114667,18.457572088899944,152376.98037649723,0.8050699050114667
8460.0,2.29329533592532,18.403932620969435,155689.68824827173,0.7932953359253201
8640.0,2.2813859252436877,18.345319335286007,158991.84572862322,0.7813859252436877
8820.0,2.269354048501203,18.28179336856901,162282.56853496563,0.7693540485012029
9000.0,2.25721176280062,18.21341953520986,165560.9840513034,0.7572117628006199
9180.0,2.2449708056968825,18.140266213473573,168826.23196972866,0.7449708056968825
9360.0,2.2326425947035027,18.06240522999328,172077.46491112746,0.7326425947035027
9540.0,2.2202382273326817,17.97991174255808,175313.84902478792,0.7202382273326817
9720.0,2.2077684815961702,17.892864121234222,178534.5645666101,0.7077684815961702
9900.0,2.195243816906667,17.801343827888843,181738.80645563008,0.6952438169066668
10080.0,2.182674375329985,17.705435294212013,184925.78480858824,0.6826743753299849
10260.0,2.170069983146795,17.60522579835026,188094.72545229128,0.6700699831467949
10440.0,2.157440152689731,17.500805340281453,191244.87041354194,0.6574401526897309
10620.0,2.1447940844273674,17.39226651607129,194375.47838643478,0.6447940844273674
10800.0,2.132140669271238,17.279704391160344,197485.82517684365,0.6321406692712381
10980.0,2.119488491085868,17.163216372836725,200575.20412395426,0.619488491085868
11160.0,2.106845829384881,17.04290208205279,203642.92649872377,0.6068458293848811
11340.0,2.094220662198777,16.918863224746413,206688.3218791781,0.5942206621987771
11520.0,2.0816206691020036,16.79120346282823,209710.7385024872,0.5816206691020036
11700.0,2.0690532343886034,16.66002828499498,212709.54359378628,0.5690532343886034
11880.0,2.0565254503870944,16.52544487752788,215684.12367174128,0.5565254503870944
12060.0,2.044044120906265,16.38756199523237,218633.88483088312,0.544044120906265
12240.0,2.031615764804514,16.246489832672147,221558.25300076412,0.5316157648045139
12420.0,2.019246619676005,16.1023398958469,224456.67418201655,0.519246619676005
12600.0,2.0064413182643066,15.953634292685857,227328.3283547,0.5064413182643066
12780.0,1.9932479131430167,15.800629495062687,230172.44166381127,0.49324791314301675
12960.0,1.9798815294224572,15.644112376712535,232988.38189161953,0.4798815294224572
13140.0,1.971998048834915,15.502027996712263,235778.74693102774,0.4719980488349149
13320.0,1.964347994703259,15.357842144058559,238543.15851695827,0.46434799470325894
13500.0,1.9569407813411563,15.211676674042803,241281.26031828596,0.45694078134115634
13680.0,1.9497838145563162,15.063647864920474,243992.71693397165,0.4497838145563162
13860.0,1.9428824883333475,14.913866342427909,246677.21287560867,0.44288248833334753
14040.0,1.9362403708874207,14.762437609819571,249334.4516453762,0.43624037088742074
14220.0,1.9298594330287002,14.609462714008275,251964.1549338977,0.4298594330287002
14400.0,1.9237402675251336,14.455038883953957,254566.0619330094,0.4237402675251336
14580.0,1.9178822869078775,14.299260100756035,257139.9287511455,0.41788228690787754
14760.0,1.9122838983719845,14.142217594615447,259685.52791817626,0.41228389837198454
14940.0,1.906942657347921,13.98400027323402,262202.6479673584,0.4069426573479209
15120.0,1.9018554019189347,13.824695088237771,264691.0930832412,0.40185540191893465
15300.0,1.8970183702324248,13.664387346232049,267150.682805563,0.3970183702324248
15480.0,1.8924273028732008,13.503160970610832,269581.2517802729,0.3924273028732008
15660.0,1.888077531962458,13.341098719670205,271982.6495498136,0.3880775319624581
15840.0,1.8839640585525657,13.178282366020447,274354.74037569726,0.38396405855256566
16020.0,1.8800816197119337,13.01479284178062,276697.40308721777,0.38008161971193366
16200.0,1.8764247465368493,12.850710353579005,279010.530950862,0.3764247465368493
16380.0,1.8729878141868794,12.686114470965883,281294.03155563585,0.37298781418687943
16560.0,1.8697650849155854,12.52108419147205,283547.8267101008,0.36976508491558535
16740.0,1.8667507449572254,12.355697985209158,285771.85234743846,0.36675074495722537
16920.0,1.8633590782160772,12.188350229772613,287965.75538879755,0.36335907821607716
17100.0,1.860212529763853,12.020960984841365,290129.528366069,0.360212529763853
17280.0,1.8572944865775993,11.85357454748912,292263.17178461706,0.3572944865775993
17460.0,1.8545960575056142,11.686257286481965,294366.6980961838,0.3545960575056142
17640.0,1.8521106248094155,11.519081491071999,296440.13276457676,0.35211062480941546
17820.0,1.8498323165472006,11.352120811772446,298483.5145106958,0.3498323165472006
18000.0,1.8477555238130938,11.18544878239432,300496.8952915268,0.3477555238130938
18180.0,1.8458747461380014,11.019138305857151,302480.3401865811,0.3458747461380014
18360.0,1.8441845435078317,10.85326145205459,304433.9272479509,0.3441845435078317
18540.0,1.8426795231033597,10.68788935742073,306357.7473322867,0.3426795231033597
18720.0,1.8413543371907974,10.523092157671938,308251.9039206676,0.34135433719079744
18900.0,1.8402036844347924,10.358938931447371,310116.5129283281,0.34020368443479243
19080.0,1.8392223121158207,10.195497647695811,311951.7025049134,0.33922231211582066
19260.0,1.8384050184472198,10.03283511459926,313757.61282554123,0.3384050184472198
19440.0,1.8377466547489598,9.871016929434111,315534.3958728394,0.3377466547489598
19620.0,1.8372421274181912,9.710107429288627,317282.21521011135,0.33724212741819115
19800.0,1.8368863996947637,9.550169642717938,319001.24574580055,0.33688639969476375
19980.0,1.8366744932373191,9.391265242463044,320691.6734894439,0.33667449323731913
20160.0,1.8366014895294995,9.233454499368344,322353.6952993302,0.33660148952949953
20340.0,1.8366625311356781,9.076796237628226,323987.5186221033,0.3366625311356781
20520.0,1.8368528228240901,8.921347791485513,325593.3612245707,0.3368528228240901
20700.0,1.8371676325735,8.767164963496485,327171.4509180001,0.3371676325735
20880.0,1.8376022924777966,8.614301984468852,328722.02527520445,0.3376022924777966
21060.0,1.83815219956126,8.462811475170827,330245.3313407352,0.33815219956125997
21240.0,1.8388128165157545,8.312744409902317,331741.6253345176,0.33881281651575446
21420.0,1.8395796723697142,8.164150082011583,333211.1723492797,0.3395796723697142
21600.0,1.8404483630975552,8.017076071434138,334654.24604213785,0.3404483630975552
21780.0,1.8414145521770016,7.871568214324011,336071.12832071615,0.34141455217700156
21960.0,1.8424739711007987,7.727670574841335,337462.1090241876,0.3424739711007987
22140.0,1.8436224198483409,7.58542541915408,338827.48559963534,0.34362241984834085
22320.0,1.8448557673219108,7.444873191706271,340167.5627741425,0.3448557673219108
22500.0,1.846169951751472,7.306052493799427,341482.6522230264,0.346169951751472
22680.0,1.847560981071249,7.169000064528632,342773.0722346415,0.347560981071249
22860.0,1.8490249332707487,7.033750764109675,344039.1473721813,0.3490249332707487
23040.0,1.850557956722281,6.900337559628659,345281.20813291444,0.35055795672228096
23220.0,1.8521562704865915,6.7687915132407515,346499.59060529777,0.3521562704865915
23400.0,1.853816164597725,6.639141772840291,347694.63612440904,0.3538161645977249
23580.0,1.8555340003278848,6.511415565219359,348866.6909261485,0.35553400032788485
23760.0,1.8573062104326927,6.385638191728448,350016.1058006596,0.35730621043269273
23940.0,1.8591292993769313,6.261833026447641,351143.2357454202,0.3591292993769313
24120.0,1.8609998435406057,6.140021516873045,352248.43961845734,0.36099984354060566
24300.0,1.8629144914049076,6.0202231871187895,353332.0797921387,0.3629144914049076
24480.0,1.8648699637174715,5.902455643631009,354394.5218079923,0.3648699637174715
24660.0,1.8668630536361304,5.786734583406108,355436.1340330054,0.36686305363613037
24840.0,1.8688906268502379,5.673073804701491,356457.2873178517,0.3688906268502379
25020.0,1.8709496216784922,5.561485220223329,357458.3546574919,0.3709496216784922
25200.0,1.873037049142113,5.451978872771625,358439.7108545908,0.3730370491421131
25380.0,1.875149993012116,5.344562953319439,359401.73218618834,0.37514999301211605
25560.0,1.8772856098293955,5.2392438214989285,360344.79607405816,0.3772856098293955
25740.0,1.8794411288962714,5.136026028463261,361269.28075918154,0.37944112889627135
25920.0,1.8816138522381183,5.034912342089675,362175.56498075766,0.3816138522381183
26100.0,1.8838011545337143,4.935903774485208,363064.027660165,0.38380115453371433
26280.0,1.8860004830129065,4.838999611752887,363935.0475902805,0.38600048301290646
26460.0,1.8882093573202419,4.744197445972594,364789.00313055556,0.38820935732024187
26640.0,1.890425369343218,4.651493209347111,365626.27190823806,0.39042536934321803
26820.0,1.8926461830038435,4.560881210460184,366447.2305261209,0.39264618300384346
27000.0,1.8948695340122548,4.472354172590122,367252.25427718717,0.3948695340122548
27180.0,1.8970932295811882,4.385903274018611,368041.7168665105,0.3970932295811882
27360.0,1.8993151481001596,4.301518190271191,368815.9901407593,0.39931514810015956
27540.0,1.901533238768278,4.219187138222353,369575.4438256394,0.40153323876827796
27720.0,1.9037455211847203,4.138896921994748,370320.4452715984,0.4037455211847203
27900.0,1.9059500848959374,4.060632980578875,371051.3592081026,0.4059500848959374
28080.0,1.9081450888987768,3.9843794370962193,371768.54750677996,0.40814508889877676
28260.0,1.910328761098805,3.9101191496257495,372472.3689537126,0.4103287610988049
28440.0,1.9124993977232014,3.837833763510605,373163.1790311445,0.41249939772320143
28620.0,1.914655362687692,3.7675037650587684,373841.3297088551,0.4146553626876921
28800.0,1.9167950869171186,3.6991085365486582,374507.1692454338,0.41679508691711864
28980.0,1.9189170676193268,3.6326264124478507,375161.04199967446,0.4189170676193268
29160.0,1.9210198675121994,3.568034736750408,375803.2882522895,0.42101986751219944
29340.0,1.923102114003724,3.5053099213357535,376434.24403813,0.4231021140037241
29520.0,1.9251624983251743,3.444427505249715,377054.2409890749,0.4251624983251743
29700.0,1.9271997746175265,3.3853622148059817,377663.60618774,0.42719977461752645
29880.0,1.9292127589714183,3.328088024404181,378262.66203213274,0.4292127589714183
30060.0,1.9312003284210248,3.2725782179587983,378851.7261113653,0.43120032842102485
30240.0,1.9331614198923879,3.218805450831367,379431.11109251494,0.4331614198923879
30420.0,1.935095029106833,3.16674181215679,380001.12461870315,0.43509502910683295
30600.0,1.93700020944023,3.1163588874531496,380562.0692184447,0.4370002094402301
30780.0,1.9388760707389916,3.06762782140319,381114.24222629727,0.4388760707389916
30960.0,1.940721778093802,3.0205193806946147,381657.9357148223,0.440721778093802
31140.0,1.9425365505721948,2.975004016805455,382193.4364378473,0.44253655057219476
31320.0,1.9443196599112214,2.93105192862027,382721.02578499896,0.44431965991122135
31500.0,1.9460704291715545,2.8886331247623924,383240.9797474562,0.4460704291715545
31680.0,1.9477882313544943,2.8477174855274257,383753.56889485114,0.4477882313544943
31860.0,1.9494724879834462,2.808274824303153,384259.0583632257,0.4494724879834462
32040.0,1.951122667651546,2.770274948361397,384757.70785393077,0.45112266765154607
32220.0,1.9527382845372292,2.733687718907921,385249.7716433342,0.4527382845372292
32400.0,1.954318896889608,2.698483110277184,385735.49860318407,0.4543188968896079
32580.0,1.9558641054856505,2.6646312681599347,386215.13223145285,0.4558641054856505
32760.0,1.957373552061231,2.6321025667528724,386688.91069346835,0.457373552061231
32940.0,1.958846917718203,2.6008676647211146,387157.06687311816,0.4588469177182031
33120.0,1.9602839213097532,2.5708975598661765,387619.8284338941,0.46028392130975315
33300.0,1.9616843178063448,2.542163642394053,388077.417889525,0.4616843178063448
33480.0,1.96304789664466,2.5146377466805148,388530.0526839275,0.46304789664466006
33660.0,1.9643744800619896,2.4882922014331794,388977.9452801855,0.46437448006198956
33840.0,1.965663921418615,2.4630998781527906,389421.30325825297,0.4656639214186149
34020.0,1.966916103510755,2.4390342377993153,389860.32942105684,0.46691610351075497
34200.0,1.968130936876715,2.416069375571656,390295.22190865973,0.46813093687671503
34380.0,1.9693083580989266,2.394180063713466,390726.17432012816,0.46930835809892657
34560.0,1.9704483281045864,2.37334179226136,391153.37584273523,0.47044832810458637
34740.0,1.9715508304676554,2.353530807655724,391577.01138811326,0.47155083046765545
34920.0,1.9726158697149905,2.334724149138814,391997.2617349582,0.4726158697149905
35100.0,1.9736434696394052,2.316899682869062,392414.3036778746,0.4736434696394052
35280.0,1.9746336716224768,2.3000361336853667,392828.310181938,0.4746336716224768
35460.0,1.9755865329699018,2.2841131144599163,393239.45054254076,0.47558653296990183
35640.0,1.9765021252622257,2.269111152983169,393647.8905500777,0.4765021252622257
35820.0,1.9773805327237377,2.255011716329867,394053.7926590171,0.4773805327237377
36000.0,1.9782218506123357,2.241797232660249,394457.3161608959,0.4782218506123357
36180.0,1.9790261836331118,2.229451110416261,394858.6173607708,0.4790261836331118
36360.0,1.9797936443784097,2.2179577548781535,395257.8497566489,0.47979364437840966
36540.0,1.9805243517970452,2.207302582052608,395655.1642214183,0.4805243517970452
36720.0,1.9812184296953488,2.197472029869469,396050.7091867948,0.4812184296953488
36900.0,1.9818760052726416,2.1884535666700797,396444.63082879543,0.4818760052726416
37080.0,1.9824972076936922,2.180235696976206,396837.07325425115,0.4824972076936922
37260.0,1.9830821667006375,2.1728079645347207,397228.1786878674,0.4830821667006375
37440.0,1.983631011266789,2.166160952639244,397618.0876593425,0.483631011266789
37620.0,1.9841438682946648,2.160286281736109,398006.939190055,0.4841438682946648
37800.0,1.984620861360501,2.1551766043281626,398394.8709788341,0.484620861360501
37980.0,1.9850621095074117,2.150825597196078,398782.0195863294,0.4850621095074117
38160.0,1.9854677260892806,2.1472279509628502,399168.52061750274,0.48546772608928057
38340.0,1.985837817667345,2.144379357033331,399554.5089017687,0.485837817667345
38520.0,1.9861724829613587,2.142276491946514,399940.1186703191,0.48617248296135873
38700.0,1.9864718118570814,2.140916999184276,400325.4837301723,0.48647181185708144
38880.0,1.9867358844717435,2.140299468486005,400710.73763449973,0.48673588447174354
39060.0,1.9869647702790219,2.1404234127242843,401096.0138487901,0.48696477027902185
39240.0,1.9871585272949106,2.1412892424023218,401481.4459124225,0.4871585272949106
39420.0,1.9873172013257863,2.142898237839191,401867.16759523354,0.48731720132578626
39600.0,1.9874408252797957,2.1452525191142495,402253.3130486741,0.4874408252797957
39780.0,1.9875294185425871,2.1483550138470626,402640.01695116656,0.48752941854258713
39960.0,1.9875829864182641,2.1522094228941286,403027.4146472875,0.48758298641826414
40140.0,1.9876015196362877,2.1568201840482337,403415.6422804162,0.48760151963628773
40320.0,1.9875849939249448,2.1621924338308123,403804.8369185058,0.4875849939249448
40500.0,1.9875333696518125,2.1683319674717834,404195.1366726507,0.4875333696518125
40680.0,1.9874465915315582,2.175245197175379,404586.6808081423,0.4874465915315582
40860.0,1.9873245884012194,2.1829391087741072,404979.60984772164,0.4873245884012194
41040.0,1.987167273063006,2.1914212168764764,405374.0656667594,0.4871672730630059
41220.0,1.9869745421944847,2.200699518617213,405770.19158011046,0.48697454219448466
41400.0,1.986746276325902,2.2107824461216903,406168.1324204124,0.48674627632590206
41580.0,1.9864823398842149,2.221678817798721,406568.03460761614,0.48648233988421485
41760.0,1.986182581303296,2.2333977885783187,406970.04620956024,0.48618258130329606
41940.0,1.9858468331996073,2.2459487992129477,407374.31699341856,0.4858468331996073
42120.0,1.9854749126125129,2.2593415247624655,407780.9984678758,0.48547491261251285
42300.0,1.9850666213082746,2.273585822384453,408190.243915905,0.4850666213082746
42480.0,1.9846217461466025,2.288691678552577,408602.2084180445,0.4846217461466025
42660.0,1.984140059508548,2.304669155826525,409017.0488660933,0.4841400595085481
42840.0,1.9836213197843682,2.321528339297483,409434.9239671668,0.4836213197843682
43020.0,1.9830652719198634,2.339279282833249,409855.9942380768,0.48306527191986337
43200.0,1.982471648019593,2.357931955247024,410280.42199002125,0.48247164801959297
43380.0,1.9818401680052355,2.3774961865134285,410708.3713035937,0.48184016800523555
43560.0,1.9811705403272526,2.3979816141545784,411140.0079941415,0.4811705403272526
43740.0,1.9804624627279162,2.4193976299180275,411575.49956752674,0.48046246272791615
43920.0,1.9797156230536401,2.441753326867113,412015.0151663628,0.47971562305364013
44100.0,1.9789297001144803,2.4650574470026108,412458.7255068233,0.47892970011448033
