t(s),Tsurface(蚓),Flux(W),E(J),f_liq
0.0,-2.0,4.800000000000004,0.0,0.0
180.0,-2.15439998326062,4.467571261321377,804.1628270378479,0.0
360.0,-2.2306888274647356,4.318333769172574,1581.462905488911,0.0
540.0,-2.285479544408604,4.217718112266978,2340.652165696967,0.0
720.0,-2.3302657536827573,4.1384806983030265,3085.5786913915117,0.0
900.0,-2.369011011869185,4.071277603490587,3818.408660019817,0.0
1080.0,-2.4035445975444185,4.011825015270428,4540.537162768494,0.0
1260.0,-2.434864228336228,3.957805106837772,5252.942081999294,0.0
1440.0,-2.4635853532746177,3.90779945395592,5956.34598371136,0.0
1620.0,-2.490127797363726,3.86084588745641,6651.298243453513,0.0
1800.0,-2.5148013600226404,3.8162355935978303,7338.220650301123,0.0
1980.0,-2.537847793991369,3.773414215698814,8017.435209126909,0.0
2160.0,-2.559462739774112,3.731930839694942,8689.182760271999,0.0
2340.0,-2.5798080578852436,3.6914098916674707,9353.636540772144,0.0
2520.0,-2.599019379300565,3.651534368094069,10010.912727029077,0.0
2700.0,-2.6172111583787303,3.6120348967342024,10661.079008441233,0.0
2880.0,-2.6344803356710407,3.572681963209495,11304.161761818941,0.0
3060.0,-2.65090916262747,3.5332799843329115,11940.152158998866,0.0
3240.0,-2.6665674745537076,3.4936625550412157,12569.011418906284,0.0
3420.0,-2.6815145691503584,3.4536885092060405,13190.675350563371,0.0
3600.0,-2.695800783883779,3.4132385891488934,13805.058296610172,0.0
3780.0,-2.70946883248131,3.3722125968353702,14412.056564040538,0.0
3960.0,-2.7225549429809432,3.3305269408404543,15011.55141339182,0.0
4140.0,-2.7350898293622956,3.2881125161193405,15603.411666293301,0.0
4320.0,-2.7470995221855756,3.244912867450098,16187.495982434319,0.0
4500.0,-2.7586060790983864,3.200882596523418,16763.654849808532,0.0
4680.0,-2.769628192667265,3.155985979181692,17331.732326061236,0.0
4860.0,-2.7801817103118327,3.110195764320785,17891.56756363898,0.0
5040.0,-2.79028007893248,3.06349213000785,18442.99614704039,0.0
5220.0,-2.799934724996735,3.0158617757305355,18985.851266671885,0.0
5400.0,-2.8091553793056767,2.96729713254336,19519.96475052969,0.0
5580.0,-2.8179503543464905,2.9177956753209586,20045.16797208746,0.0
5760.0,-2.8263267810124404,2.867359323435514,20561.29265030585,0.0
5940.0,-2.8342908105074183,2.8159939179996476,21068.17155554579,0.0
6120.0,-2.8418477864250375,2.763708765396889,21565.63913331723,0.0
6300.0,-2.8490023912821254,2.7105162381936285,22053.53205619208,0.0
6480.0,-2.8557587711768333,2.6564314257165274,22531.689712821055,0.0
6660.0,-2.8621206417181666,2.601471827612634,22999.95464179133,0.0
6840.0,-2.8680913779244146,2.545657084605848,23458.172917020383,0.0
7020.0,-2.8736740904023397,2.489008741441157,23906.194490479793,0.0
7200.0,-2.878871689788005,2.4315500376829506,24343.873497262724,0.0
7380.0,-2.8836869411462818,2.3733057226184218,24771.06852733404,0.0
7560.0,-2.8881225097824874,2.3143018910245146,25187.642867718452,0.0
7740.0,-2.8921809997107992,2.254565836996104,25593.464718377752,0.0
7920.0,-2.8958649858450496,2.1941259234137105,25988.40738459222,0.0
8100.0,-2.899177040824025,2.1330114649588223,26372.34944828481,0.0
8280.0,-2.902119757251874,2.0712526228698205,26745.17492040138,0.0
8460.0,-2.904695766021532,2.008880309878553,27106.77337617952,0.0
8640.0,-2.906907751292589,1.9459261039807147,27457.04007489605,0.0
8820.0,-2.9087584626122736,1.8824221698778718,27795.876065474065,0.0
9000.0,-2.9102507245975064,1.8184011870881176,28123.188279149927,0.0
9180.0,-2.911387444535366,1.7538962838599992,28438.889610244725,0.0
9360.0,-2.9121716182073807,1.688940976143176,28742.898985950498,0.0
9540.0,-2.9126063341987476,1.6235691109716663,29035.141425925398,0.0
9720.0,-2.912694776915513,1.5578148137039485,29315.54809239211,0.0
9900.0,-2.9124402285003184,1.4917124386402814,29584.05633134736,0.0
10080.0,-2.9118460698094673,1.4252965226033234,29840.609705415958,0.0
10260.0,-2.910915780590316,1.3586017411245654,30085.15801881838,0.0
10440.0,-2.909652938977641,1.2916628669278465,30317.65733486539,0.0
10620.0,-2.9080612204102807,1.2245147304428887,30538.069986345112,0.0
10800.0,-2.9061443960544326,1.1571921821181959,30746.364579126388,0.0
10980.0,-2.903906330807336,1.089730056333183,30942.51598926636,0.0
11160.0,-2.9013509809441502,1.022163136736538,31126.50535387894,0.0
11340.0,-2.8984823914616316,0.9545261228603283,31298.320055993798,0.0
11520.0,-2.895304693164182,0.8868535978794675,31457.9537036121,0.0
11700.0,-2.8918220995311685,0.8191799974028406,31605.40610314461,0.0
11880.0,-2.8880389033985248,0.7515395791972759,31740.68322740012,0.0
12060.0,-2.8839594734828027,0.6839663937579227,31863.797178276545,0.0
12240.0,-2.879588250771523,0.6164942556497172,31974.766144293495,0.0
12420.0,-2.8749297448001725,0.5491567155537662,32073.614353093173,0.0
12600.0,-2.869988529833018,0.481987032961002,32160.372019026152,0.0
12780.0,-2.8647692409624064,0.4150181494620601,32235.075285929324,0.0
12960.0,-2.859276570138887,0.3482826625890736,32297.766165195357,0.0
13140.0,-2.853515262142683,0.2818128001699572,32348.49246922595,0.0
13320.0,-2.847490110505362,0.21564039516096273,32387.30774035492,0.0
13500.0,-2.841205953389244,0.14979686092721242,32414.27117532182,0.0
13680.0,-2.8346676694309307,0.08431316694473201,32429.447545371873,0.0
13860.0,-2.827880173554314,0.01921981490107648,32432.90711205407,0.0
14040.0,-2.8208484127576945,-0.04545318482560125,32424.72553878546,0.0
14220.0,-2.813577361878904,-0.10967633632616855,32404.98379824675,0.0
14400.0,-2.8060720193417836,-0.1734206809734618,32373.768075671527,0.0
14580.0,-2.798337402886904,-0.23665781990075593,32331.16966808939,0.0
14760.0,-2.790378545289078,-0.29935993615576106,32277.284879581355,0.0
14940.0,-2.782200490063867,-0.36149981653790086,32212.214912604533,0.0
15120.0,-2.773808287165089,-0.4230508731245553,32136.065755442112,0.0
15300.0,-2.7652069886751964,-0.4839871644901301,32048.948065833887,0.0
15480.0,-2.756401644490204,-0.544283416619532,31950.97705084237,0.0
15660.0,-2.74739729800085,-0.6039150435160278,31842.27234300949,0.0
15840.0,-2.7381989817716024,-0.6628581675013484,31722.957872859246,0.0
16020.0,-2.728811713219158,-0.7210896392040722,31593.16173780251,0.0
16200.0,-2.7192404902920906,-0.77858705723048,31453.016067501027,0.0
16380.0,-2.7094902871534097,-0.8353287875100319,31302.65688574922,0.0
16560.0,-2.6995660498678635,-0.8912939823058827,31142.223968934162,0.0
16740.0,-2.689472692095952,-0.9464625988788106,30971.860701135978,0.0
16920.0,-2.679215090796757,-1.0008154177910298,30791.713925933593,0.0
17100.0,-2.668798081941845,-1.0543340608344105,30601.933794983397,0.0
17280.0,-2.6582264562427214,-1.1070010085657218,30402.673613441566,0.0
17460.0,-2.6475049548944383,-1.1587996174293607,30194.089682304282,0.0
17640.0,-2.6366382653382616,-1.2097141364462725,29976.34113774395,0.0
17820.0,-2.625631017046448,-1.259729723445543,29749.589787523753,0.0
18000.0,-2.614487777332483,-1.3088324608133077,29513.999944577357,0.0
18180.0,-2.6032130471903288,-1.3570093707314126,29269.738257845704,0.0
18360.0,-2.591811257166571,-1.4042484298765434,29016.973540467927,0.0
18540.0,-2.5802867632695032,-1.450538583548145,28755.87659542926,0.0
18720.0,-2.5686438429196143,-1.4958697591918595,28486.620038774727,0.0
18900.0,-2.556886690946097,-1.5402328792829652,28209.378120503792,0.0
19080.0,-2.5450194156343735,-1.5836198735324833,27924.326543267944,0.0
19260.0,-2.5330460348299058,-1.626023690376723,27631.642279000134,0.0
19440.0,-2.5209704721038455,-1.6674383077091572,27331.503383612486,0.0
19620.0,-2.5087965529863885,-1.7078587428117138,27024.088809906378,0.0
19800.0,-2.496528001274025,-1.7472810614409602,26709.578218847004,0.0
19980.0,-2.484168435417139,-1.785702386022825,26388.151789362895,0.0
20160.0,-2.471721364994746,-1.8231209029081883,26059.990026839423,0.0
20340.0,-2.4591901872834256,-1.8595358686399992,25725.273570484223,0.0
20520.0,-2.446578183927828,-1.8949476151814701,25384.18299975156,0.0
20700.0,-2.4338885177203915,-1.9293575540535652,25036.89864002192,0.0
20880.0,-2.4211242294981825,-1.9627681793289757,24683.600367742703,0.0
21060.0,-2.4082882351650605,-1.9951830694289698,24324.46741524549,0.0
21240.0,-2.395383322847596,-2.0266068876687338,23959.678175465117,0.0
21420.0,-2.3824121501934035,-2.0570453814962995,23589.410006795784,0.0
21600.0,-2.369377241820793,-2.0865053803699016,23213.839038329203,0.0
21780.0,-2.356280986928819,-2.114994792218468,22833.13997572988,0.0
21960.0,-2.3431256370770064,-2.1425225984301313,22447.485908012455,0.0
22140.0,-2.329913304144158,-2.169098847314067,22057.048115495923,0.0
22320.0,-2.3166459584758057,-2.1947346459815886,21661.995879219237,0.0
22500.0,-2.303325427229945,-2.2194421505934576,21262.496292112413,0.0
22680.0,-2.289953392930772,-2.2432345549216,20858.714072226525,0.0
22860.0,-2.2765313922401678,-2.2661260771749747,20450.81137833503,0.0
23040.0,-2.263060814956677,-2.2881319450412905,20038.947628227597,0.0
23220.0,-2.2495429032516983,-2.3092683788984942,19623.279320025867,0.0
23400.0,-2.2359787511524942,-2.3295525731525446,19203.959856858408,0.0
23580.0,-2.22236930428153,-2.349002675660917,18781.139375239443,0.0
23760.0,-2.2087153598614755,-2.367637765204752,18354.96457750259,0.0
23940.0,-2.195017566994975,-2.3854778269760972,17925.57856864689,0.0
24120.0,-2.1812764272280383,-2.4025437260509075,17493.12069795773,0.0
24300.0,-2.16749229540557,-2.4188571788230075,17057.726405769587,0.0
24480.0,-2.1536653808272064,-2.434440722378976,16619.52707574137,0.0
24660.0,-2.139795748711154,-2.449317681799268,16178.649893017502,0.0
24840.0,-2.1258833219733155,-2.463512135376695,15735.217708649698,0.0
25020.0,-2.1119278833283612,-2.4770488777491626,15289.348910654848,0.0
25200.0,-2.097929077718877,-2.48995338095036,14841.157302083782,0.0
25380.0,-2.0838864150779948,-2.5022517533886117,14390.751986473831,0.0
25560.0,-2.069799273430267,-2.51397069677151,13938.23726105496,0.0
25740.0,-2.0556669023346794,-2.525137461001252,13483.712518074733,0.0
25920.0,-2.0414884266729425,-2.5357797970737384,13027.27215460146,0.0
26100.0,-2.0272628507852497,-2.545925908022272,12569.005491157452,0.0
26280.0,-2.012989062954752,-2.555604397955423,12108.996699525476,0.0
26460.0,-1.9986658402410016,-2.564844219247076,11647.324740061003,0.0
26640.0,-1.9842918536615313,-2.5736746179456667,11184.063308830784,0.0
26820.0,-1.9698656737196385,-2.582125077478581,10719.28079488464,0.0
27000.0,-1.955385776275279,-2.590225260736893,10253.040247952,0.0
27180.0,-1.9408505487547385,-2.5980049506348575,9785.399356837726,0.0
27360.0,-1.926258296693552,-2.6054939892479756,9316.410438773091,0.0
27540.0,-1.9116072506057853,-2.6127222156425556,8846.12043995743,0.0
27720.0,-1.8968955731715538,-2.6197194025192063,8374.570947503973,0.0
27900.0,-1.8821213667332197,-2.6265151918016136,7901.798212979683,0.0
28080.0,-1.8672826810894152,-2.633139029310997,7427.8331877037035,0.0
28260.0,-1.852377521574601,-2.6396200986754277,6952.701569942126,0.0
28440.0,-1.8374038574105234,-2.645987254631617,6476.423864108435,0.0
28620.0,-1.8223596303144918,-2.6522689558848067,5999.01545204917,0.0
28800.0,-1.8072427633480432,-2.658493197700199,5520.486676463134,0.0
28980.0,-1.7920511699881836,-2.664687444406584,5040.84293646995,0.0
29160.0,-1.7767827634020184,-2.670878561999331,4560.08479531007,0.0
29340.0,-1.7614354659042841,-2.6770927510362537,4078.2081001235447,0.0
29520.0,-1.7460072185759978,-2.6833554800249875,3595.2041137190467,0.0
29700.0,-1.7304959910211932,-2.689691419505497,3111.0596582080575,0.0
29880.0,-1.714899791237542,-2.696124377035013,2625.757270341755,0.0
30060.0,-1.6992166755755342,-2.702677233285973,2139.2753683502797,0.0
30240.0,-1.6834447587598176,-2.709371879469532,1651.588430045764,0.0
30420.0,-1.6675822239453808,-2.716229156298771,1162.6671819119852,0.0
30600.0,-1.6516273327803164,-2.7232687947056933,672.4787988649604,0.0
30780.0,-1.6355784354461937,-2.730509358525732,180.9871143303286,0.0
30960.0,-1.6194339806463318,-2.7379681893614642,-311.84715975473495,0.0
31140.0,-1.603192525511728,-2.7456613538345787,-806.0662034449591,0.0
31320.0,-1.5868527453939618,-2.7536035934311935,-1301.714850262574,0.0
31500.0,-1.5704134435140418,-2.7618082771406263,-1798.8403401478868,0.0
31680.0,-1.5538735604360068,-2.770287357081653,-2297.4920644225845,0.0
31860.0,-1.5372321833340257,-2.779051327303054,-2797.721303337134,0.0
32040.0,-1.5204885550218212,-2.7881091859370337,-3299.5809568058003,0.0
32220.0,-1.5036420827134964,-2.797468400874702,-3803.1252689632465,0.0
32400.0,-1.4866923464851904,-2.8071348791224935,-4308.409547205295,0.0
32580.0,-1.4696391074075519,-2.817112939986953,-4815.489876402947,0.0
32760.0,-1.4524823153196489,-2.8274052922230624,-5324.422829003098,0.0
32940.0,-1.4352221162158054,-2.8380130152679737,-5835.265171751333,0.0
33120.0,-1.417858859217776,-2.848935544667985,-6348.07356979157,0.0
33300.0,-1.4003931031058219,-2.860170661791719,-6862.904288914079,0.0
33480.0,-1.3828256223834756,-2.871714487906917,-7379.812896737324,0.0
33660.0,-1.3651574128521982,-2.8835614826820075,-7898.853963620086,0.0
33840.0,-1.347389696673629,-2.895704447157086,-8420.080764108361,0.0
34020.0,-1.3295239268987917,-2.9081345312115556,-8943.544979726441,0.0
34200.0,-1.311561791445379,-2.9208412455383566,-9469.296403923345,0.0
34380.0,-1.2935052165060998,-2.933812478116889,-9997.382649984385,0.0
34560.0,-1.2753563693730479,-2.947034515158943,-10527.848862712995,0.0
34740.0,-1.257117660665122,-2.9604920664839534,-11060.737434680108,0.0
34920.0,-1.2387917459476356,-2.9741682952621438,-11596.087727827295,0.0
35100.0,-1.22038152673549,-2.988044852046526,-12133.93580119567,0.0
35280.0,-1.2018901508735136,-3.002101912997233,-12674.314145535172,0.0
35460.0,-1.1833210122898985,-3.0163182221850153,-13217.251425528475,0.0
35640.0,-1.1646777501209626,-3.030671137843983,-13762.772230340392,0.0
35820.0,-1.1459642472078353,-3.0451366824280752,-14310.896833177445,0.0
36000.0,-1.1271846279680036,-3.0596895963106814,-14861.640960513367,0.0
36180.0,-1.1083432556469845,-3.074303394952306,-15415.015571604781,0.0
36360.0,-1.0894447289577112,-3.0889504293479786,-15971.026648887417,0.0
36540.0,-1.070493878117483,-3.10360194955366,-16529.674999807077,0.0
36720.0,-1.0514957602945634,-3.1182281710792084,-17090.956070601336,0.0
36900.0,-1.0324556544786556,-3.1327983439255784,-17654.85977250794,0.0
37080.0,-1.0133790557915823,-3.147280824034555,-18221.37032083416,0.0
37260.0,-0.9942716692564815,-3.1616431469112234,-18790.466087278182,0.0
37440.0,-0.9751394030457337,-3.1758521031732405,-19362.119465849366,0.0
37620.0,-0.9559883612296232,-3.1898738157748707,-19936.296752688842,0.0
37800.0,-0.936824836049414,-3.203673818650185,-20512.958040045876,0.0
37980.0,-0.9176552997400517,-3.2172171365167035,-21092.057124618885,0.0
38160.0,-0.8984863959291387,-3.2304683655795046,-21673.541430423196,0.0
38340.0,-0.8793249306400808,-3.2433917548752063,-22257.351946300732,0.0
38520.0,-0.860177862928447,-3.255951287996845,-22843.423178140165,0.0
38700.0,-0.8410522951815481,-3.2681107649424828,-23431.683115829812,0.0
38880.0,-0.8219554631120782,-3.2798338838341685,-24022.05321491996,0.0
39060.0,-0.8028947254773251,-3.2910843222586594,-24614.44839292652,0.0
39240.0,-0.7838775535559728,-3.3018258179866398,-25208.777040164114,0.0
39420.0,-0.7649115204148736,-3.3120222488347855,-25804.941044954376,0.0
39600.0,-0.7460042899983834,-3.321637711442103,-26402.835833013953,0.0
39780.0,-0.7271636060728808,-3.330636598741322,-27002.350420787392,0.0
39960.0,-0.7083972810590261,-3.338983675915387,-27603.367482452162,0.0
40140.0,-0.6897131847840389,-3.3466441546397703,-28205.76343028732,0.0
40320.0,-0.6711192331859168,-3.3535837654220404,-28809.408508063287,0.0
40500.0,-0.6526233770009788,-3.3597688278621667,-29414.166897078478,0.0
40680.0,-0.6342335904654898,-3.3651663186688654,-30019.896834438874,0.0
40860.0,-0.6159578600613406,-3.3697439372802838,-30626.450743149326,0.0
41040.0,-0.5978041733348887,-3.3734701689497184,-31233.675373560276,0.0
41220.0,-0.5797805078170803,-3.376314345170888,-31841.411955691037,0.0
41400.0,-0.5618948200718892,-3.378246701330033,-32449.496361930444,0.0
41580.0,-0.5441550348989497,-3.3792384314859865,-33057.75927959792,0.0
41760.0,-0.5265690347150163,-3.37926174019249,-33666.02639283257,0.0
41940.0,-0.5091446491375701,-3.3782898912905526,-34274.118573264874,0.0
42120.0,-0.5091957596766173,-3.4156661110745636,-34888.9384732583,0.0
42300.0,-0.5091732745898154,-3.452139018895026,-35510.3234966594,0.0
42480.0,-0.509002951159364,-3.487483788921217,-36138.070578665225,0.0
42660.0,-0.5086644988590769,-3.521595231075161,-36771.95772025875,0.0
42840.0,-0.5081578982971869,-3.5544140655985816,-37411.7522520665,0.0
43020.0,-0.5074911549684898,-3.5859000082232084,-38057.21425354668,0.0
43200.0,-0.5066750461188553,-3.616020110685247,-38708.09787347002,0.0
43380.0,-0.5057207555403067,-3.644743432962546,-39364.151691403276,0.0
43560.0,-0.5046388529775854,-3.672038699086073,-40025.11865723877,0.0
43740.0,-0.5034389256145342,-3.6978734275490437,-40690.73587419759,0.0
43920.0,-0.5021295212105062,-3.722213786565412,-41360.734355779365,0.0
44100.0,-0.5007182298111259,-3.745024786690467,-42034.83881738365,0.0
44280.0,-0.4992118163914689,-3.766270610024942,-42712.76752718814,0.0007881836085311122
44460.0,-0.49761636161985917,-3.785914974596165,-43394.23222261545,0.002383638380140829
44640.0,-0.49593739146053345,-3.803921485654852,-44078.93809003332,0.00406260853946655
44820.0,-0.49417998843799255,-3.820253953657952,-44766.58380169175,0.005820011562007454
45000.0,-0.49234888335005933,-3.8348766730218813,-45456.861602835685,0.00765111664994067
45180.0,-0.49044852892033064,-3.8477546626113908,-46149.45744210573,0.00955147107966936
45360.0,-0.48848315789681346,-3.8588538718578675,-46844.05113904015,0.011516842103186542
45540.0,-0.48645682828479786,-3.868141357299494,-47540.31658335406,0.01354317171520214
45720.0,-0.4843734582032459,-3.875585434249626,-48237.921961518994,0.0156265417967541
45900.0,-0.48223685251119885,-3.881155807789416,-48936.530006921086,0.017763147488801145
46080.0,-0.4800507229809696,-3.884823686633545,-49635.79827051512,0.019949277019030376
46260.0,-0.47781870345166283,-3.8865618827752377,-50335.379409414665,0.02218129654833717
46440.0,-0.4755443611002608,-3.8863448992406995,-51034.92149127799,0.024455638899739174
46620.0,-0.47323120472213054,-3.88414900779314,-51734.068312680756,0.02676879527786946
46800.0,-0.47088269071481104,-3.879952318024953,-52432.45972992525,0.029117309285188964
46980.0,-0.4685022273019174,-3.8737348389532844,-53129.73200093684,0.03149777269808263
47160.0,-0.4660931774109284,-3.865478533979046,-53825.51813705307,0.03390682258907157
47340.0,-0.4636588605229658,-3.8551673698692905,-54519.44826362954,0.03634113947703421
47520.0,-0.4611847406686574,-3.8427362326925216,-55211.140785514195,0.03881525933134261
47700.0,-0.4586626274805835,-3.8281393389496574,-55900.20586652513,0.04133737251941649
47880.0,-0.45609956413407177,-3.8113766596497145,-56586.25366526208,0.04390043586592823
48060.0,-0.453511203989443,-3.7924758843250914,-57268.899324440594,0.046488796010557
48240.0,-0.4509148008556049,-3.771472542429855,-57947.76438207797,0.049085199144395075
48420.0,-0.4483256862768476,-3.7483997148381625,-58622.47633074884,0.0516743137231524
48600.0,-0.4457561949470427,-3.723284672955515,-59292.66757188083,0.054243805052957283
48780.0,-0.4442625917539633,-3.6992687866411678,-59958.53595347625,0.05573740824603668
48960.0,-0.4428136343715648,-3.673304565972698,-60619.73077535133,0.05718636562843521
49140.0,-0.4414140795366707,-3.645403768613166,-61275.9034537017,0.05858592046332928
49320.0,-0.4400666382259984,-3.615574309834596,-61926.70682947193,0.0599333617740016
49500.0,-0.43877301137998964,-3.5838232661472236,-62571.79501737843,0.06122698862001036
49680.0,-0.43753427581507476,-3.55015798597588,-63210.823454854086,0.06246572418492524
49860.0,-0.43635106942946034,-3.5145866173426055,-63843.44904597576,0.06364893057053966
50040.0,-0.43522370195875826,-3.4771184205750862,-64469.33036167928,0.06477629804124174
