t(s),Tsurface(蚓),Flux(W),E(J),f_liq
0.0,6.0,24.000000000000025,0.0,1.0
180.0,4.906204417815718,21.560881885048065,3880.9587393086517,1.0
360.0,4.385826416032221,20.474995675376796,7566.457960876475,1.0
540.0,4.062144729867625,19.850439458993776,11139.537063495354,1.0
720.0,3.837715880564488,19.4574203338492,14641.87272358821,1.0
900.0,3.671707867127415,19.199780539920212,18097.83322077385,1.0
1080.0,3.541676595530137,19.024385876156938,21522.2226784821,1.0
1260.0,3.4341410630277673,18.8990508168217,24924.051825510007,1.0
1440.0,3.340816397706684,18.803806042096724,28308.736913087418,1.0
1620.0,3.2565847550271045,18.726190735408956,31679.45124546103,1.0
1800.0,3.1782827833480845,18.658420419027966,35037.966920886065,1.0
1980.0,3.103956562135721,18.59563187756985,38385.180658848636,1.0
2160.0,3.032400693744336,18.53478774508404,41721.44245296376,1.0
2340.0,2.9628728067490884,18.473991879716852,45046.760991312796,1.0
2520.0,2.8949167302684193,18.41206152587493,48360.932065970286,1.0
2700.0,2.828253025968605,18.34826007907757,51663.618880204245,1.0
2880.0,2.7627112579033115,18.28213026043384,54954.40232708234,1.0
3060.0,2.698188111650733,18.213390030187604,58232.81253251611,1.0
3240.0,2.634621513407073,18.14186767643357,61498.34871427415,1.0
3420.0,2.571974646782407,18.067461348494028,64750.491757003074,1.0
3600.0,2.5102260888114767,17.99011383269562,67988.71224688829,1.0
3780.0,2.5107018594917405,18.08264761287323,71243.58881720547,1.0
3960.0,2.5116663862139474,18.173267133938406,74514.77690131438,1.0
4140.0,2.512804502037261,18.261010975500046,77801.7588769044,1.0
4320.0,2.5138764201020507,18.34511438617414,81103.87946641573,1.0
4500.0,2.514700201569324,18.424966043741875,84420.37335428927,1.0
4680.0,2.5151395785216906,18.50007832633295,87750.38745302921,1.0
4860.0,2.5150944739344143,18.5700640330942,91092.99897898617,1.0
5040.0,2.514493470197949,18.634617721141733,94447.23016879168,1.0
5220.0,2.51328779912347,18.693500662544828,97812.06028804975,1.0
5400.0,2.5114465422011243,18.746528703112997,101186.43545461008,1.0
5580.0,2.5089527978082895,18.79356245924254,104569.27669727374,1.0
5760.0,2.505800621748375,18.8344994005798,107959.48658937811,1.0
5940.0,2.501992586369333,18.869267453797818,111355.95473106172,1.0
6120.0,2.4975378344518533,18.89781983304213,114757.5623010093,0.9975378344518533
6300.0,2.4924505287919634,18.92013085929077,118163.18585568163,0.9924505287919634
6480.0,2.4867486181960508,18.93619257667258,121571.70051948269,0.9867486181960508
6660.0,2.480452856448567,18.94601201079449,124981.9826814257,0.9804528564485668
6840.0,2.4735860234927807,18.94960894402937,128392.91229135098,0.9735860234927807
7020.0,2.4661723082136007,18.947014106872622,131803.37483058806,0.9661723082136007
7200.0,2.4582368203338185,18.93826770399101,135212.26301730645,0.9582368203338185
7380.0,2.449805205435227,18.923418209345265,138618.4782949886,0.9498052054352271
7560.0,2.4409033423177466,18.902521377496903,142020.93214293805,0.9409033423177466
7740.0,2.431557106072049,18.875639428484686,145418.5472400653,0.9315571060720491
7920.0,2.421792183571613,18.84284037195068,148810.2585070164,0.921792183571613
8100.0,2.4116339307548618,18.804197442890665,152195.01404673673,0.9116339307548618
8280.0,2.4011072631998953,18.759788626805946,155571.7759995618,0.9011072631998953
8460.0,2.3902365731997732,18.7096962563903,158939.52132571206,0.8902365731997732
8640.0,2.379045667910543,18.65400666540087,162297.2425254842,0.879045667910543
8820.0,2.3675577242354002,18.59280988819553,165643.9483053594,0.8675577242354002
9000.0,2.3557952569810694,18.526199395702722,168978.6641965859,0.8557952569810694
9180.0,2.3437800975204457,18.45427186043017,172300.43313146333,0.8437800975204457
9360.0,2.331533380753557,18.377126944601034,175608.31598149153,0.831533380753557
9540.0,2.319075538605156,18.29486710669928,178901.3920606974,0.8190755386051558
9720.0,2.3064262986538933,18.207597422665945,182178.75959677726,0.8064262986538933
9900.0,2.2936046867731688,18.115425418759983,185439.53617215407,0.7936046867731688
10080.0,2.2806290328915706,18.018460913718467,188682.8591366234,0.7806290328915706
10260.0,2.2675169791628815,17.916815868347808,191907.885992926,0.7675169791628815
10440.0,2.2542854899810556,17.810604241078554,195113.79475632013,0.7542854899810556
10620.0,2.2409508633916904,17.699941848335875,198299.78428902058,0.7409508633916904
10800.0,2.2275287435442603,17.58494622883402,201465.0746102107,0.7275287435442603
10980.0,2.2140341339033873,17.46573651110843,204608.9071822102,0.7140341339033873
11160.0,2.200481410996426,17.342433283761483,207730.54517328728,0.7004814109964261
11340.0,2.186884338521759,17.215158468028616,210829.27369753242,0.6868843385217591
11520.0,2.1732560816796886,17.08403519237436,213904.4000321598,0.6732560816796886
11700.0,2.159609221617689,16.949187668908706,216955.25381256337,0.6596092216176892
11880.0,2.1459557699055827,16.810741071479526,219981.18720542968,0.6459557699055827
12060.0,2.132307182975076,16.668821415346134,222981.575060192,0.6323071829750759
12240.0,2.118674376473125,16.523555438378306,225955.8150391001,0.6186743764731251
12420.0,2.105067739490506,16.375070483755675,228903.32772617612,0.6050677394905062
12600.0,2.091497148636368,16.223494384165058,231823.55671532583,0.591497148636368
12780.0,2.071889274832203,16.04969107476832,234712.50110878414,0.5718892748322029
12960.0,2.0534393623451157,15.876617300787432,237570.29222292587,0.5534393623451157
13140.0,2.0362811987864085,15.704784328053737,240397.15340197555,0.5362811987864085
13320.0,2.020337512375641,15.53403356070264,243193.279442902,0.5203375123756411
13500.0,2.005492632879095,15.364085967254994,245958.81491700793,0.5054926328790952
13680.0,1.9916319235887217,15.194667446532266,248693.85505738374,0.49163192358872165
13860.0,1.9786514200628738,15.025539387711566,251398.45214717183,0.47865142006287376
14040.0,1.9664593357222482,14.856503361280774,254072.62275220238,0.4664593357222482
14220.0,1.9549753367787899,14.68739871182093,256716.35452033015,0.4549753367787899
14400.0,1.9441293003087372,14.518098498913956,259329.61225013467,0.4441293003087372
14580.0,1.9338600496442846,14.348505357119864,261912.34321441624,0.4338600496442846
14760.0,1.9286423585124521,14.192453386197977,264466.9848239319,0.42864235851245214
14940.0,1.9236714986173904,14.035178833237127,266993.3170139146,0.4236714986173904
15120.0,1.91898529740059,13.876893538638953,269491.1578508696,0.4189852974005901
15300.0,1.914584496803956,13.71769496615695,271960.34294477786,0.41458449680395604
15480.0,1.9104592036907944,13.557648267691297,274400.7196329623,0.41045920369079436
15660.0,1.9065965644634622,13.396809983905348,276812.1454300653,0.40659656446346215
15840.0,1.9029833210807887,13.23523584931399,279194.4878829418,0.4029833210807887
16020.0,1.8996066600882464,13.072983309789363,281547.62487870385,0.3996066600882464
16200.0,1.8964544668734367,12.910112203247033,283871.4450752883,0.39645446687343666
16380.0,1.8935153725668585,12.746684802068764,286165.8483396607,0.39351537256685853
16560.0,1.8907787305680217,12.582765639803672,288430.7461548253,0.3907787305680217
16740.0,1.8882345711641244,12.418421271306288,290666.06198366045,0.3882345711641244
16920.0,1.885873551262352,12.253720018669064,292871.73158702085,0.3858735512623519
17100.0,1.8836869050802014,12.088731721010753,295047.70329680276,0.3836869050802014
17280.0,1.8816663976742931,11.923527494051442,297193.93824573205,0.3816663976742931
17460.0,1.8798042817911984,11.758179501133107,299310.410555936,0.3798042817911984
17640.0,1.8780932580400254,11.592760735857338,301397.1074883903,0.37809325804002536
17820.0,1.8765264382268325,11.427344816014735,303454.02955527295,0.3765264382268325
18000.0,1.8750973116458127,11.262005788325931,305481.1905971716,0.3750973116458127
18180.0,1.873799714116967,11.096817943487576,307478.61782699934,0.3737997141169671
18360.0,1.8726277995681786,10.931855641025862,309446.35184238397,0.3726277995681786
18540.0,1.8715760139718474,10.76719314348725,311384.44660821167,0.37157601397184736
18720.0,1.8706390714592083,10.60290445952388,313292.969410926,0.37063907145920827
18900.0,1.8698119324480993,10.439063195460143,315172.00078610884,0.3698119324480993
19080.0,1.8690897836318219,10.27574241495444,317021.63442080066,0.3690897836318219
19260.0,1.8684680196878558,10.1130145063954,318841.9770319518,0.3684680196878558
19440.0,1.8679422265754573,9.950951057697102,320633.1482223373,0.3679422265754573
19620.0,1.8675081663007764,9.789622738179686,322395.28031520965,0.36750816630077643
19800.0,1.86716176303692,9.62909918724339,324128.51816891343,0.36716176303691994
19980.0,1.8668990904946519,9.46944890956394,325833.0189726349,0.36689909049465186
20160.0,1.8667163604469625,9.310739176555229,327508.95202441484,0.36671636044696254
20340.0,1.8666099123178184,9.153035933862835,329156.4984925102,0.36660991231781836
20520.0,1.8665762037518987,8.99640371466796,330775.8511611504,0.3665762037518987
20700.0,1.8666118020881668,8.840905558595564,332367.2141616976,0.3666118020881668
20880.0,1.8667133766657245,8.686602936035253,333930.8026901839,0.36671337666572446
21060.0,1.8668776918955712,8.533555677695487,335466.8427121691,0.3668776918955712
21240.0,1.8671016010366912,8.381821909223655,336975.5706558294,0.3671016010366912
21420.0,1.86738204061934,8.231457990735885,338457.23309416184,0.36738204061934
21600.0,1.867716025462514,8.082518461110043,339912.0864171616,0.36771602546251403
21780.0,1.8681006442364227,7.9350559869047235,341340.3964948045,0.36810064423642275
21960.0,1.8685330555242787,7.789121315775993,342742.43833164417,0.36853305552427873
22140.0,1.869010484341056,7.64476323427069,344118.4957138129,0.369010484341056
22320.0,1.8695302190698484,7.502028529882782,345468.8608491918,0.3695302190698484
22500.0,1.870089608779312,7.360961957265396,346793.8340014996,0.37008960877931196
22680.0,1.870686060888267,7.221606208497336,348093.7231190291,0.37068606088826694
22860.0,1.8713170391459628,7.084001887307404,349368.8434587444,0.3713170391459628
23040.0,1.8719800618987512,6.948187487165698,350619.5172064342,0.3719800618987512
23220.0,1.8726727006159962,6.814199373154054,351846.07309360197,0.3726727006159962
23400.0,1.8733925786499717,6.682071767532452,353048.8460117578,0.37339257864997166
23580.0,1.8741373702063118,6.551836738920627,354228.1766247635,0.37413737020631177
23760.0,1.8749047995032129,6.4235241950178406,355384.41097986675,0.37490479950321287
23940.0,1.8756926400991683,6.297161878785086,356517.90011804807,0.37569264009916825
24120.0,1.8764987143704075,6.172775368016942,357628.99968429114,0.3764987143704075
24300.0,1.8773208931206025,6.050388078231192,358718.06953837274,0.37732089312060246
24480.0,1.8781570953065847,5.930021268805945,359785.4733667578,0.3781570953065847
24660.0,1.8790052878650267,5.811694052294985,360831.5782961709,0.37900528786502674
24840.0,1.8798634856260787,5.695423406852134,361856.7545094043,0.37986348562607875
25020.0,1.880729751300966,5.58122419169659,362861.3748639097,0.380729751300966
25200.0,1.8816021955314968,5.469109165550394,363845.81451370876,0.38160219553149677
25380.0,1.8824789769902863,5.359089007979506,364810.45053514506,0.3824789769902863
25560.0,1.8833583025213172,5.251172343569406,365755.66155698756,0.3833583025213172
25740.0,1.8842384273112387,5.145365768865078,366681.82739538327,0.3842384273112387
25920.0,1.8851176550824837,5.04167388200507,367589.3286941442,0.38511765508248375
26100.0,1.885994338299985,4.9400993149773536,368478.5465708401,0.3859943382999851
26280.0,1.886866878383863,4.840642768424253,369349.8622691565,0.3868668783838629
26460.0,1.887733725921073,4.743303048921721,370203.6568179624,0.3877337259210729
26640.0,1.888593380869539,4.648077108656867,371040.3106975207,0.388593380869539
26820.0,1.8894443927488054,4.554960087426069,371860.2035132574,0.3894443927488054
27000.0,1.8902853608117518,4.463945356873888,372663.71367749467,0.3902853608117518
27180.0,1.8911149341923619,4.375024566891343,373451.2180995351,0.3911149341923619
27360.0,1.8919318120249742,4.2881876940899755,374223.0918844713,0.3919318120249742
27540.0,1.89273474353086,4.203423092266015,374979.70804107917,0.3927347435308599
27720.0,1.8935225280683488,4.120717544766965,375721.43719913723,0.39352252806834875
27900.0,1.894294015143123,4.040056318670573,376448.64733649796,0.3942940151431229
28080.0,1.8950481043756122,3.9614232206840705,377161.7035162211,0.3950481043756122
28260.0,1.8957837454227946,3.884800654669337,377860.9676340616,0.3957837454227946
28440.0,1.896499937852002,3.8101696806973275,378546.7981765871,0.396499937852002
28620.0,1.8971957309646443,3.737510075532974,379219.54999018303,0.39719573096464433
28800.0,1.8978702235680607,3.6668003944496625,379879.57406118396,0.3978702235680607
28980.0,1.8985225636939702,3.598018034270078,380527.2173073526,0.3985225636939702
29160.0,1.8991519482622776,3.5311392975282767,381162.82238090766,0.3991519482622776
29340.0,1.8997576226892334,3.466139457645848,381786.7274832839,0.3997576226892334
29520.0,1.9003388804392036,3.4029928250129746,382399.2661917862,0.4003388804392036
29700.0,1.9008950625195253,3.3416728138635357,383000.76729828166,0.40089506251952534
29880.0,1.9014255569181726,3.282152009831619,383591.55466005136,0.4014255569181726
30060.0,1.9019297979841499,3.224402238075157,384171.9470629049,0.40192979798414985
30240.0,1.902407265750758,3.1683946318510867,384742.2580966381,0.402407265750758
30420.0,1.902857485202078,3.1140997014250265,385302.7960428946,0.4028574852020781
30600.0,1.9032800254832063,3.0614874031973374,385853.8637754701,0.4032800254832063
30780.0,1.9036744990549532,3.0105272089265247,386395.75867307687,0.40367449905495323
30960.0,1.9040405607939355,2.9611881749300215,386928.7725445643,0.40404056079393547
31140.0,1.9043779070391047,2.913439011141957,387453.19156656985,0.4043779070391047
31320.0,1.9046862745859796,2.867248149906934,387969.2962335531,0.4046862745859796
31500.0,1.904965439629973,2.8225838143888606,388477.3613201431,0.4049654396299729
31680.0,1.905215216660371,2.779414086473642,388977.65585570835,0.4052152166603711
31860.0,1.9054354573066632,2.7377069740451305,389470.4431110365,0.4054354573066632
32040.0,1.905626049139071,2.697430477513871,389955.980596989,0.4056260491390711
32220.0,1.905786914425239,2.6585526554792156,390434.52007497527,0.40578691442523906
32400.0,1.9059180088452037,2.621041689406136,390906.30757906835,0.4059180088452037
32580.0,1.906019320166847,2.5848659471994275,391371.58344956423,0.40601932016684694
32760.0,1.9060908668841772,2.549994045559404,391830.5823777649,0.40609086688417717
32940.0,1.9061326968208847,2.516394911004973,392283.5334617458,0.4061326968208847
33120.0,1.906144885701696,2.484037839451909,392730.66027284716,0.40614488570169605
33300.0,1.9061275356941834,2.452892554236518,393172.1809326097,0.40612753569418336
33480.0,1.9060807739237304,2.4229292624772576,393608.3081998556,0.40608077392373043
33660.0,1.9060047509644713,2.394118709669787,394039.2495675962,0.4060047509644713
33840.0,1.9058996393090617,2.366432232413894,394465.2073694307,0.4058996393090617
34020.0,1.9057656318202245,2.339841809174044,394886.37889508205,0.4057656318202245
34200.0,1.905602940167063,2.314320108978869,395302.9565146982,0.4056029401670631
34380.0,1.9054117932491925,2.2898405379686753,395715.1278115326,0.4054117932491925
34560.0,1.905192435611758,2.26637728370414,396123.07572259934,0.405192435611758
34740.0,1.904945125854482,2.2439053571535523,396526.97868688696,0.40494512585448206
34920.0,1.9046701350378774,2.2224006322805643,396927.01080069743,0.4046701350378774
35100.0,1.9043677450897958,2.2018398831590216,397323.34197966603,0.4043677450897958
35280.0,1.9040382472154969,2.182200818546495,397716.1381270044,0.40403824721549686
35460.0,1.9036819403144147,2.1634621138531553,398105.56130749796,0.40368194031441473
35640.0,1.9032991294068131,2.145603440448024,398491.7699267786,0.4032991294068131
35820.0,1.9028901240734937,2.128605492250098,398874.91891538363,0.40289012407349367
36000.0,1.902455236911704,2.112450009557509,399255.159917104,0.40245523691170404
36180.0,1.901994782010382,2.097119800073735,399632.6414811173,0.40199478201038197
36360.0,1.901509073447814,2.0825987570957034,400007.50925739453,0.40150907344781395
36540.0,1.9009984238147695,2.0688718748348744,400379.90619486483,0.40099842381476947
36720.0,1.9004631427660945,2.0559252608483725,400749.97274181753,0.4004631427660945
36900.0,1.899903535603728,2.04374614556369,401117.847048019,0.39990353560372793
37080.0,1.8993199018939981,2.0323228888866227,401483.6651680186,0.39931990189399813
37260.0,1.8987125341220266,2.0216449838886614,401847.56126511854,0.39871253412202656
37440.0,1.8980817163859596,2.011703057576397,402209.6678154823,0.39808171638595957
37620.0,1.8974277231336762,2.0024888687519464,402570.1158118576,0.39742772313367625
37800.0,1.8967508179445287,1.993995302979902,402929.034966394,0.3967508179445287
37980.0,1.8960512523585762,1.9862163646827313,403286.5539120369,0.3960512523585762
38160.0,1.895329264755661,1.979147166392899,403642.8004019876,0.395329264755661
38340.0,1.8945850792865784,1.9727839151964306,403997.90150672296,0.3945850792865784
38520.0,1.8938189048584673,1.9671238964088245,404351.98380807653,0.39381890485846727
38700.0,1.8930309341764364,1.9621654545304872,404705.17358989205,0.3930309341764364
38880.0,1.892221342843311,1.9579079715348664,405057.5970247683,0.392221342843311
39060.0,1.8913902885192588,1.9543518425485245,405409.38035642705,0.39139028851925883
39240.0,1.8905379101429125,1.9514984489881033,405760.6500772449,0.3905379101429125
39420.0,1.889664327215484,1.9493501292248843,406111.53310050536,0.38966432721548405
39600.0,1.8887696391492121,1.9479101468530826,406462.1569269389,0.38876963914921214
39780.0,1.8878539246813355,1.9471826566433381,406812.64980513474,0.3878539246813355
39960.0,1.8869172413546609,1.9471726682679429,407163.140885423,0.3869172413546609
40140.0,1.8859596250656125,1.9478860078892488,407513.7603668431,0.38595962506561254
40320.0,1.884981089680533,1.9493292777072992,407864.63963683037,0.384981089680533
40500.0,1.8839816267208103,1.9515098135671578,408215.9114032725,0.38398162672081027
40680.0,1.882961205117308,1.9544356407305574,408567.709818604,0.3829612051173079
40860.0,1.8819197710343545,1.9581154279203048,408920.17059562966,0.3819197710343545
41040.0,1.8808572477634506,1.9625584397495395,409273.43111478456,0.38085724776345065
41220.0,1.8797735356866605,1.9677744876511774,409627.6305225618,0.3797735356866605
41400.0,1.878668512309503,1.9737738794259654,409982.90982085845,0.37866851230950305
41580.0,1.8775420323630347,1.9805673675301732,410339.41194701387,0.37754203236303474
41760.0,1.8763939279746136,1.9881660962264196,410697.2818443346,0.3763939279746136
41940.0,1.8752240089067218,1.9965815477231743,411056.6665229248,0.3752240089067218
42120.0,1.8740320628630562,2.005825487430263,411417.7151106622,0.37403206286305624
42300.0,1.8728178558609583,2.0159099084590855,411780.57889418484,0.3728178558609583
42480.0,1.8715811326690932,2.0268469754974627,412145.4113497744,0.3715811326690932
42660.0,1.8703216173091761,2.0386489681897233,412512.36816404853,0.3703216173091761
42840.0,1.8690390136203747,2.0513282241531896,412881.6072443961,0.3690390136203747
43020.0,1.8677330058848989,2.0648970817623127,413253.28871911333,0.3677330058848989
43200.0,1.8664032595131623,2.07936782283159,413627.57492722303,0.3664032595131623
43380.0,1.865049421786763,2.0947526153278164,414004.630397982,0.36504942178676303
43560.0,1.863671122657413,2.1110634562415727,414384.62182010553,0.36367112265741297
43740.0,1.862267975599841,2.1283121147465796,414767.7180007599,0.36226797559984103
43920.0,1.8608395785165626,2.1465100757742865,415154.08981439925,0.36083957851656256
44100.0,1.8593855146923288,2.165668484129287,415543.9101415425,0.3593855146923288
44280.0,1.8579053537959416,2.1857980892691797,415937.35379761097,0.35790535379594157
44460.0,1.856398652927054,2.2069091908703187,416334.5974519676,0.35639865292705397
