t(s),Tsurface(蚓),Flux(W),E(J),f_liq
0.0,4.0,19.200000000000017,0.0,1.0
180.0,3.3227799227853594,17.727503720050507,3190.950669609091,1.0
360.0,3.029935404451328,17.164087765460845,6280.486467392044,1.0
540.0,2.858348668157348,16.885769910535096,9319.925051288361,1.0
720.0,2.741492116949088,16.734814032845673,12332.191577200581,1.0
900.0,2.6519202412813896,16.645803041349872,15328.436124643558,1.0
1080.0,2.5763647889667842,16.58683111155949,18314.065724724267,1.0
1260.0,2.5081769261656923,16.541742039498352,21291.579291833972,1.0
1440.0,2.5086376678535705,16.668161341020184,24291.848333217604,1.0
1620.0,2.509279101549079,16.793093134911466,27314.60509750167,1.0
1800.0,2.5095695619748493,16.915048113809622,30359.313757987402,1.0
1980.0,2.509170328075411,17.033002181991677,33425.2541507459,1.0
2160.0,2.507872695592492,17.146250097156113,36511.579168234006,1.0
2340.0,2.5055568835916713,17.25430951054961,39617.35488013294,1.0
2520.0,2.502163815326468,17.356854484569702,42741.588687355485,1.0
2700.0,2.497675541165417,17.453668894312223,45883.249088331686,0.997675541165417
2880.0,2.492101635513143,17.54461368718143,49041.279552024345,0.9921016355131429
3060.0,2.4854697549772844,17.62960388373713,52214.60825109703,0.9854697549772844
3240.0,2.4778191002868213,17.708592440230692,55402.154890338556,0.9778191002868213
3420.0,2.4691959046736063,17.78155894570036,58602.83550056462,0.9691959046736063
3600.0,2.4596503357763435,17.848501724197227,61815.565810920125,0.9596503357763435
3780.0,2.449234382696567,17.909432333843075,65039.263631011876,0.949234382696567
3960.0,2.438000428850051,17.964371751519355,68272.85054628536,0.9380004288500512
4140.0,2.426000301460645,18.013347741637872,71515.25313978018,0.926000301460645
4320.0,2.413284651612692,18.056393055383623,74765.40388974923,0.9132846516126918
4500.0,2.3999025628723643,18.09354421120516,78022.24184776616,0.8999025628723643
4680.0,2.3859013173132007,18.124840680966702,81284.71317034017,0.8859013173132007
4860.0,2.371326269326989,18.150324358120997,84551.77155480195,0.871326269326989
5040.0,2.3562207926586987,18.170039220894044,87822.37861456287,0.8562207926586987
5220.0,2.3406262766249957,18.184031129302046,91095.50421783724,0.8406262766249957
5400.0,2.324582154824828,18.192347713029044,94370.12680618247,0.824582154824828
5580.0,2.3081259547820827,18.19503832002565,97645.23370378709,0.8081259547820827
5760.0,2.291293360541709,18.19215400472937,100919.82142463837,0.791293360541709
5940.0,2.2741182827387005,18.18374754117417,104192.89598204973,0.7741182827387005
6120.0,2.256632932400138,18.16987345073829,107463.47320318261,0.7566329324001382
6300.0,2.2333278092329594,18.133775632263152,110727.55281698998,0.7333278092329594
6480.0,2.2116204891480287,18.09781840133297,113985.16012922992,0.7116204891480287
6660.0,2.191469992389319,18.061926459984935,117236.3068920272,0.6914699923893188
6840.0,2.1726412591693425,18.025426696520814,120480.88369740095,0.6726412591693425
7020.0,2.1548973550407573,17.987629797471712,123718.65706094586,0.6548973550407573
7200.0,2.138036114550599,17.947944453696902,126949.2870626113,0.6380361145505988
7380.0,2.1294157705712107,17.929232591211935,130176.54892902945,0.6294157705712107
7560.0,2.1210192620404653,17.906784542822585,133399.77014673752,0.6210192620404653
7740.0,2.1128796901665523,17.880706793470743,136618.29736956223,0.6128796901665523
7920.0,2.1049862045127634,17.85097269171085,139831.4724540702,0.6049862045127634
8100.0,2.0973173589869782,17.81752515273934,143038.62698156328,0.5973173589869782
8280.0,2.0898505587302587,17.780306002551722,146239.0820620226,0.5898505587302587
8460.0,2.082564953243188,17.739265140812396,149432.1497873688,0.582564953243188
8640.0,2.075442178622264,17.694363029622945,152617.13513270093,0.5754421786222639
8820.0,2.0684663814522906,17.645570919925127,155793.33789828746,0.5684663814522906
9000.0,2.0616240179558707,17.592870344341517,158960.05456026894,0.5616240179558707
9180.0,2.054903598968701,17.53625240958475,162116.5799939942,0.5549035989687008
9360.0,2.048295438049853,17.475717070838204,165262.2090667451,0.5482954380498528
9540.0,2.0417914203394942,17.411272446802293,168396.2381071695,0.5417914203394942
9720.0,2.035384796039805,17.342934190832672,171517.96626151938,0.5353847960398048
9900.0,2.029069997812592,17.270724918834524,174626.69674690958,0.5290699978125919
10080.0,2.0228424800139555,17.194673689877533,177721.73801108755,0.5228424800139555
10260.0,2.016698577420184,17.114815534312104,180802.40480726372,0.516698577420184
10440.0,2.010635381198597,17.03119102417958,183868.01919161604,0.5106353811985969
10620.0,2.0046506300828466,16.943845881098134,186917.9114502137,0.5046506300828466
10800.0,1.9987426149350958,16.852830617284678,189951.42096132494,0.49874261493509575
10980.0,1.992910095088414,16.758200205848826,192967.89699837772,0.492910095088414
11160.0,1.987152225053517,16.66001377693231,195966.69947822555,0.48715222505351696
11340.0,1.9814684903436022,16.558334336663197,198947.19965882492,0.4814684903436022
11520.0,1.9758586513209357,16.453228506248383,201908.78078994964,0.47585865132093574
11700.0,1.9703226941008818,16.344766278841288,204850.83872014107,0.4703226941008818
11880.0,1.9648607876652693,16.233020792103552,207772.7824627197,0.4648607876652693
12060.0,1.9594732464392317,16.118068114626144,210674.0347233524,0.4594732464392317
12240.0,1.9541604976755607,15.999987044597546,213554.03239137997,0.45416049767556066
12420.0,1.9489230530696717,15.87885891930126,216412.22699685418,0.44892305306967173
12600.0,1.9437614840978308,15.754767434199158,219248.08513501004,0.4437614840978308
12780.0,1.9386764006324015,15.627798470511763,222061.08885970217,0.43867640063240154
12960.0,1.9336684324416469,15.498039930341166,224850.73604716358,0.4336684324416469
13140.0,1.928738213228882,15.365581578505733,227616.5407312946,0.42873821322888195
13320.0,1.9238863669073174,15.230514890360709,230358.03341155953,0.4238863669073174
13500.0,1.9191134958434843,15.092932904974974,233074.76133445502,0.41911349584348434
13680.0,1.9144201708342408,14.952930083117094,235766.2887494161,0.41442017083424076
13860.0,1.909806922610594,14.810602169578994,238432.1971399403,0.40980692261059404
14040.0,1.905274234686404,14.666046059429911,241072.0854306377,0.405274234686404
14220.0,1.9008225373918435,14.519359667852415,243685.57017085113,0.4008225373918435
14400.0,1.8964522029506716,14.370641803261991,246272.2856954383,0.39645220295067163
14580.0,1.8921635414772298,14.219992043457685,248831.8842632607,0.39216354147722976
14760.0,1.8879567977839036,14.067510614590743,251364.03617388703,0.3879567977839036
14940.0,1.8838321489027896,13.913298272772066,253868.429862986,0.3838321489027896
15120.0,1.8797897022367671,13.757456188172053,256344.77197685698,0.3797897022367671
15300.0,1.8758294942652276,13.60008583149028,258792.78742652523,0.3758294942652276
15480.0,1.8719514897385576,13.441288862699572,261212.21942181117,0.37195148973855763
15660.0,1.8681555813032247,13.281167021985931,263602.8294857686,0.3681555813032247
15840.0,1.8644415895061517,13.119822022827188,265964.3974498775,0.3644415895061517
16020.0,1.86080926313306,12.957355447166284,268296.72143036744,0.36080926313305994
16200.0,1.8572582798407176,12.793868642650501,270599.61778604455,0.35725827984071756
16380.0,1.853788247047683,12.629462621918499,272872.9210579899,0.35378824704768297
16560.0,1.8503987030521682,12.464237963928452,275116.483891497,0.35039870305216825
16740.0,1.8470891183492537,12.298294717327991,277330.17694061605,0.3470891183492537
16920.0,1.843858897122798,12.131732305875826,279513.8887556737,0.34385889712279805
17100.0,1.8407073788901531,11.964649435929362,281667.525654141,0.3407073788901531
17280.0,1.8376338402802412,11.797144006020154,283791.0115752246,0.33763384028024124
17460.0,1.834637496927621,11.62931301854163,285884.28791856207,0.3346374969276209
17640.0,1.831717505467119,11.461252493578838,287947.31336740626,0.3317175054671191
17820.0,1.8288729656151705,11.293057384912094,289980.0636966904,0.32887296561517054
18000.0,1.8261029223255194,11.124821498229101,291982.5315663717,0.3261029223255194
18180.0,1.82340636800815,10.956637411582731,293954.72630045656,0.32340636800815004
18360.0,1.8207822448014714,10.788596398131505,295896.6736521202,0.32078224480147144
18540.0,1.8182294468887428,10.620788351203073,297808.4155553368,0.3182294468887428
18720.0,1.815746822850587,10.453301711719236,299690.0098634463,0.3157468228505871
18900.0,1.8133331780462127,10.286223398023441,301541.53007509053,0.31333317804621275
19080.0,1.8109872770166182,10.119638738150647,303363.06504795764,0.3109872770166182
19260.0,1.8087078459036583,9.953631404578807,305154.7187007818,0.3087078459036583
19440.0,1.8064935748793451,9.788283351502011,306916.60970405216,0.30649357487934514
19620.0,1.8043431205802534,9.623674754663574,308648.8711598916,0.30434312058025337
19800.0,1.8022551085422542,9.459883953786505,310351.65027157316,0.30225510854225424
19980.0,1.8002281356312115,9.296987397638322,312025.10800314805,0.30022813563121153
20160.0,1.7982607724655426,9.135059591765309,313669.4187296658,0.2982607724655426
20340.0,1.796351565826871,8.974173048930172,315284.76987847325,0.29635156582687094
20520.0,1.7944990410552077,8.814398242285435,316871.36156208464,0.29449904105520774
20700.0,1.792701704425349,8.655803561313169,318429.406203121,0.29270170442534904
20880.0,1.7909580455013616,8.498455270560036,319959.1281518218,0.2909580455013616
21060.0,1.789266539466224,8.342417471194647,321460.7632966368,0.28926653946622394
21240.0,1.7876256494238123,8.18775206541196,322934.558668411,0.2876256494238123
21420.0,1.7860338286706214,8.034518723707665,324380.77203867835,0.28603382867062144
21600.0,1.7844895229346898,7.882774855043253,325799.6715125861,0.28448952293468976
21780.0,1.7829911725793584,7.73257557991983,327191.5351169717,0.28299117257935835
21960.0,1.7815372147695683,7.583973706376741,328556.65038411954,0.2815372147695683
22140.0,1.7801260855985443,7.43701970892838,329895.3139317266,0.28012608559854435
22320.0,1.778756222172765,7.291761710450038,331207.83103960764,0.2787562221727651
22500.0,1.7774260646532447,7.148245467020757,332494.5152236714,0.2774260646532447
22680.0,1.7761340582512095,7.006514355729201,333755.68780770263,0.2761340582512095
22860.0,1.774878655176355,6.866609365444582,334991.67749348265,0.2748786551763549
23040.0,1.7736583165359248,6.728569090552928,336202.8199297822,0.27365831653592476
23220.0,1.772471514182949,6.592429727655272,337389.4572807601,0.272471514182949
23400.0,1.771316732512027,6.4582250752217565,338551.9377943,0.2713167325120269
23580.0,1.7701924702011385,6.325986536192361,339690.61537081463,0.27019247020113846
23760.0,1.7690972418980127,6.195743123512006,340805.8491330468,0.26909724189801265
23940.0,1.7680295798496701,6.067521468584201,341898.002997392,0.26802957984967013
24120.0,1.766988035473806,5.941345832624683,342967.4452472644,0.2669880354738059
24300.0,1.7659711808707754,5.817238120892896,344014.5481090251,0.2659711808707754
24480.0,1.7649776102749768,5.695217899775528,345039.6873309847,0.2649776102749768
24660.0,1.7640059414445435,5.575302416693609,346043.2417659895,0.2640059414445435
24840.0,1.7630548169882723,5.457506622800434,347025.5929580936,0.26305481698827227
25020.0,1.7621229056288361,5.341843198434851,347987.1247338119,0.2621229056288361
25200.0,1.7612089034013683,5.228322581290136,348928.2227984441,0.26120890340136826
25380.0,1.760311534786595,5.1169529972558125,349849.27433795016,0.26031153478659497
25560.0,1.7594295537777627,5.007740493885915,350750.6676268496,0.25942955377776267
25740.0,1.7585617448806774,4.900688976443489,351632.79164260946,0.2585617448806774
25920.0,1.7577069240462648,4.795800246467658,352496.03568697366,0.25770692404626483
26100.0,1.7568639395351189,4.693074042806125,353340.78901467874,0.2568639395351189
26280.0,1.7560316727136032,4.59250808505203,354167.4404699881,0.25603167271360316
26460.0,1.7552090387811377,4.494098119320757,354976.3781314658,0.25520903878113765
26640.0,1.7543949874284008,4.397837966298662,355767.98896539956,0.25439498742840083
26820.0,1.75358850342624,4.303719571492017,356542.65848826815,0.25358850342623995
27000.0,1.752788607145191,4.211733057601149,357300.77043863636,0.252788607145191
27180.0,1.7519943550055734,4.121866778941038,358042.70645884576,0.25199435500557343
27360.0,1.7512048398582345,4.034107377826451,358768.8457868545,0.2512048398582345
27540.0,1.7504191912960845,3.9484398428361462,359479.564958565,0.2504191912960845
27720.0,1.7496365758966657,3.8648475688674178,360175.23752096115,0.24963657589666566
27900.0,1.7488561973960988,3.7833124188891274,360856.2337563612,0.24885619739609877
28080.0,1.7480772967948097,3.7038147872980476,361522.9204180748,0.24807729679480972
28260.0,1.7472991523955677,3.6263336647804896,362175.66047773534,0.24729915239556766
28440.0,1.7465210797744304,3.5508467045781353,362814.8128845594,0.24652107977443039
28620.0,1.7457424316853003,3.4773302900541543,363440.7323367691,0.2457424316853003
28800.0,1.7449625978988816,3.40575960345313,364053.7690653907,0.24496259789888164
28980.0,1.7441810049769237,3.3361086957455353,364654.26863062487,0.24418100497692374
29160.0,1.7433971159827284,3.2683505574453173,365242.57173096505,0.2433971159827284
29340.0,1.742610430128985,3.2024571902866676,365819.01402521663,0.2426104301289851
29520.0,1.7418204823641035,3.138399679644165,366383.9259675526,0.24182048236410347
29700.0,1.7410268428982918,3.0761482675782394,366937.6326557167,0.2410268428982918
29880.0,1.7402291166707229,3.0156724263865757,367480.45369246625,0.2402291166707229
30060.0,1.7394269427592228,2.9569409325401037,368012.7030603235,0.23942694275922283
30240.0,1.7386199937340028,2.8999219408810704,368534.6890096821,0.23861999373400278
30420.0,1.7378079749570416,2.844583058959554,369046.71396029484,0.23780797495704165
30600.0,1.7369906238288109,2.7908914213836984,369549.07441614394,0.23699062382881086
30780.0,1.7361677089841183,2.7388137640583197,370042.06089367444,0.23616770898411832
30960.0,1.7353390294389315,2.6883164981860217,370525.9578633479,0.23533902943893148
31140.0,1.73450441369011,2.6393657839047133,371001.04370445077,0.23450441369011
31320.0,1.733663718770068,2.591927603435276,371467.5906730691,0.23366371877006809
31500.0,1.7328168292584496,2.5459678336135934,371925.8648831196,0.2328168292584496
31680.0,1.7319636562529739,2.5014523176813883,372376.1263003022,0.23196365625297388
31860.0,1.73110413630168,2.4583469362111385,372818.6287488202,0.23110413630167992
32040.0,1.7302382302988597,2.416617677041379,373253.61993068765,0.2302382302988597
32220.0,1.7293659223470328,2.376230704099868,373681.3414574256,0.2293659223470328
32400.0,1.7284872185873708,2.337152424993604,374102.0288939245,0.22848721858737076
32580.0,1.7276021460010362,2.2993495572465164,374515.91181422886,0.22760214600103623
32760.0,1.726710751183948,2.2627891930676087,374923.21386898105,0.2267107511839479
32940.0,1.7258130990975378,2.2274388625346906,375324.1528642373,0.22581309909753777
33120.0,1.724909271798085,2.193266595081364,375718.94085135194,0.22490927179808495
33300.0,1.7239993671472822,2.160240979177754,376107.78422760393,0.2239993671472822
33480.0,1.7230834975066862,2.1283312200985756,376490.8838472217,0.2230834975066862
33660.0,1.72216178841876,2.097507195675413,376868.4351424432,0.2221617884187601
33840.0,1.7212343772772192,2.0677395099337343,377240.6282542313,0.22123437727721917
34020.0,1.7203014119894158,2.0389995445189046,377607.6481722447,0.22030141198941577
34200.0,1.7193630496335126,2.011259507819631,377969.67488365225,0.2193630496335126
34380.0,1.7184194551131957,1.9844924817014333,378326.8835303585,0.21841945511319572
34560.0,1.7174707998126864,1.958672465767402,378679.44457419665,0.21747079981268636
34740.0,1.716517260254796,1.9337744190680706,379027.5239696289,0.216517260254796
34920.0,1.7155590167647732,1.9097742991873272,379371.28334348265,0.21555901676477318
35100.0,1.7145962521426652,1.8866490986362783,379710.8801812372,0.2145962521426652
35280.0,1.713629150346901,1.8643768784923735,380046.4680193658,0.213629150346901
35460.0,1.7126578951917768,1.8429367992265666,380378.1966432266,0.2126578951917768
35640.0,1.7116826690614906,1.8223091486669014,380706.21228998667,0.21168266906149058
35820.0,1.7107036516433454,1.8024753670527414,381030.6578560562,0.21070365164334537
36000.0,1.7097210186826735,1.7834180691397357,381351.6731085013,0.20972101868267345
36180.0,1.7087349407620243,1.7651210633217134,381669.3948998992,0.20873494076202426
36360.0,1.7077455821070657,1.7475693677417754,381983.9573860927,0.20774558210706573
36540.0,1.7067530994216198,1.7307492233711348,382295.4922462995,0.2067530994216198
36720.0,1.705757640754176,1.7146481040405257,382604.1289050268,0.2057576407541759
36900.0,1.7047593443981526,1.6992547234154103,382909.9947552416,0.20475934439815258
37080.0,1.7037583378281245,1.6845590389125278,383213.2153822459,0.20375833782812447
37260.0,1.7027547366741265,1.6705522525618817,383513.91478770704,0.20275473667412647
37440.0,1.7017486437360838,1.6572268088245605,383812.21561329544,0.2017486437360838
37620.0,1.7007401480403288,1.6445763893833272,384108.23936338443,0.2007401480403288
37800.0,1.699729323940051,1.6325959049292118,384402.1066262717,0.19972932394005105
37980.0,1.698716230261473,1.62128148397382,384693.93729338696,0.1987162302614729
38160.0,1.6977009094973923,1.6106304587231894,384983.8507759571,0.19770090949739227
38340.0,1.6966833870496782,1.6006413480554664,385271.9662186071,0.19668338704967825
38520.0,1.6956636705221708,1.591313837650586,385558.4027093842,0.19566367052217082
38700.0,1.6946417490653347,1.5826487573263297,385843.279485703,0.1946417490653347
38880.0,1.6936175927739001,1.5746480556409028,386126.71613571834,0.19361759277390012
39060.0,1.69259115213862,1.5673147718280032,386408.8327946474,0.1925911521386201
39240.0,1.691562357553147,1.5606530051359246,386689.7503355718,0.1915623575531471
39420.0,1.6905311188769034,1.5546678816476427,386969.5905542684,0.19053111887690344
39600.0,1.6894973250547296,1.5493655186641182,387248.47634762793,0.1894973250547296
39780.0,1.6884608437939321,1.5447529867380316,387526.53188524075,0.18846084379393213
39960.0,1.6874215212992623,1.540838269450068,387803.8827737418,0.18742152129926226
40140.0,1.6863791820662126,1.5376302210244144,388080.6562135262,0.18637918206621262
40320.0,1.6853336287329022,1.5351385218845424,388356.9811474654,0.18533362873290216
40500.0,1.6842846419906854,1.533373632254443,388632.9884012712,0.1842846419906854
40680.0,1.6832319805535165,1.5323467439144174,388908.8108151758,0.18323198055351653
40860.0,1.6821753811859472,1.5320697302240194,389184.58336661616,0.18217538118594723
41040.0,1.681114558789533,1.532555094528207,389460.44328363123,0.1811145587895331
41220.0,1.680049206547285,1.533815917065701,389736.5301487031,0.18004920654728496
41400.0,1.678978996125702,1.5358658005013837,390012.98599279334,0.178978996125702
41580.0,1.677903577933769,1.5387188142070327,390289.95537935063,0.17790357793376899
41760.0,1.6768225814382134,1.5423894374167857,390567.5854780857,0.1768225814382134
41940.0,1.6757356155341823,1.5468925013857433,390846.0261283351,0.17573561553418227
42120.0,1.6746422689703881,1.5522431306815243,391125.4298918578,0.17464226897038815
42300.0,1.6735421108276658,1.5584566837399911,391405.952094931,0.1735421108276658
42480.0,1.672434691049768,1.5655486928172349,391687.7508596381,0.17243469104976805
42660.0,1.6713195410251238,1.5735348034705645,391970.9871242628,0.1713195410251238
42840.0,1.670196174218179,1.5824307137016596,392255.8246527291,0.170196174218179
43020.0,1.6690640868488449,1.5922521128949743,392542.4300330502,0.16906408684884489
43200.0,1.6679227586184764,1.6030146206843436,392830.97266477335,0.1679227586184764
43380.0,1.6667716534807189,1.6147337258800722,393121.62473543175,0.16677165348071887
43560.0,1.6656102204554633,1.6274247255880296,393414.5611860376,0.16561022045546325
43740.0,1.664437894484096,1.6411026646511055,393709.95966567483,0.16443789448409607
